124,123,124,122,121,120,115,117,119,120,121,122,122,123,123,123,124,123,121,121,122,121,121,121,122,122,122,122,122,123,124,123,123,123,123,123,123,122,122,122,122,121,121,122,122,122,122,122,122,122,123,122,123,123,124,124,124,123,123,122,117,118,120,121,122,124,124,123,122,122,122,122,122,122,122,123,123,123,123,123,122,123,123,123,122,123,122,122,122,122,122,123,123,122,122,122,122,122,122,122,122,122,122,122,121,121,121,122,122,121,122,122,123,122,122,123,122,122,121,121,122,122,122,122,122,122,123,122,122,122,123,123,122,122,122,122,122,121,122,121,122,123,123,123,124,124,123,121,120,121,120,121,122,122,123,122,122,123,123,123,122,122,122,122,123,123,123,123,122,120,119,119,119,121,124,125,125,124,123,123,123,123,122,123,124,124,125,125,125,122,121,120,121,119,119,119,121,124,123,121
120,120,121,123,119,121,121,120,123,124,121,119,114,115,120,124,125,125,126,128,127,126,126,126,123,121,120,122,122,121,119,116,115,119,120,120,120,120,117,117,120,124,128,129,127,125,125,125,125,126,126,125,124,125,123,117,118,124,129,126,126,127,126,123,115,115,118,120,120,119,118,117,120,121,121,120,117,118,121,122,122,123,124,126,125,125,125,124,122,121,121,121,122,124,125,126,128,127,123,121,120,119,118,118,120,121,125,124,125,129,129,128,126,124,122,119,118,121,124,124,121,119,117,114,120,122,122,117,113,112,116,121,121,122,123,123,125,126,127,130,130,130,126,125,123,120,119,119,122,124,124,122,119,117,119,120,122,123,123,121,120,120,122,123,126,126,130,130,129,122,120,123,116,108,114,121,121,119,122,122,122,121,121,121,123,124,123,124,125,126,125,124,124,125,125,121,116,116,120,123
125,125,124,125,126,123,125,127,126,125,121,115,117,119,123,123,123,123,122,122,122,120,121,123,125,125,125,124,122,120,121,119,121,123,126,129,127,124,118,116,114,113,110,112,118,118,119,121,123,125,125,126,125,126,126,127,125,123,122,120,120,122,124,124,123,127,125,121,120,122,123,123,124,124,123,123,123,124,123,124,124,123,123,121,120,120,121,124,123,122,121,120,121,122,123,122,120,120,121,120,122,122,121,120,123,123,122,122,121,121,121,122,124,127,126,125,124,122,121,120,119,119,119,121,121,121,123,123,122,124,125,123,123,118,112,119,125,127,126,124,125,124,122,117,119,121,123,124,124,122,121,120,122,122,122,122,124,124,125,123,125,124,121,121,122,122,123,123,121,121,122,123,121,119,119,120,118,120,122,123,123,121,120,121,121,122,123,124,125,125,122,122,123,124,125,124,123,124,123,123
123,123,122,122,121,122,121,120,120,119,120,121,122,121,119,119,122,125,124,124,125,125,127,127,126,124,123,122,118,116,118,118,118,117,120,123,123,123,122,122,122,122,122,123,123,124,124,124,124,126,127,125,124,124,122,122,120,121,119,116,120,125,125,123,122,121,121,120,122,122,120,120,121,123,123,123,123,122,120,119,120,121,122,123,121,122,122,122,122,124,124,125,125,124,125,125,125,123,121,120,118,117,118,120,120,119,120,121,124,124,124,125,125,124,124,125,124,121,121,120,119,120,121,123,124,123,122,122,122,123,122,121,122,123,124,123,122,123,122,123,123,123,124,123,122,122,123,121,120,121,121,121,121,122,122,121,122,121,123,124,123,123,122,121,119,120,121,122,125,125,127,125,122,120,119,119,121,123,123,123,124,122,121,122,122,120,119,119,119,118,121,124,125,126,127,125,125,124,122,121
120,123,123,122,121,120,120,122,122,123,123,123,123,123,124,123,121,122,120,120,121,121,121,120,120,121,122,125,126,125,123,122,122,123,124,122,122,123,122,121,119,120,123,123,123,123,123,123,124,123,123,123,122,121,121,122,122,123,123,122,122,122,121,121,121,123,123,123,123,124,123,123,121,119,117,120,123,123,124,123,123,120,120,121,122,123,123,123,124,124,125,123,122,121,121,121,120,120,119,120,122,123,122,121,124,125,125,124,122,121,121,122,120,119,121,124,123,123,122,121,122,123,122,122,121,121,124,125,124,124,123,122,122,122,123,122,123,122,119,120,122,123,123,123,123,123,123,123,123,121,120,119,120,120,122,122,122,123,123,123,121,122,123,123,122,123,123,121,121,120,121,122,122,122,123,125,125,122,118,119,122,124,125,123,123,123,122,122,122,123,124,123,121,122,120,118,120,124,125,125
123,126,125,124,124,122,120,120,121,121,121,124,123,123,122,122,121,119,120,121,120,118,119,121,123,123,122,121,120,121,121,121,122,123,123,123,125,124,126,127,126,120,119,120,122,121,122,124,124,123,121,121,122,122,122,123,124,123,123,122,122,122,124,123,122,122,121,123,123,122,122,123,120,119,119,120,121,121,125,126,125,122,123,124,125,124,123,122,122,121,121,120,119,120,122,122,122,122,122,121,122,121,119,120,122,124,123,123,123,124,125,124,123,124,123,123,122,121,121,120,119,121,121,121,121,121,122,123,124,123,121,120,121,121,121,122,122,122,121,123,125,125,125,123,124,123,122,123,122,123,123,122,121,122,122,123,123,122,122,122,122,123,122,121,122,123,123,122,122,121,122,120,121,122,123,122,124,123,119,117,117,117,120,122,123,124,123,123,123,123,123,123,123,123,123,123,124,123,122,122
120,121,123,123,124,123,122,121,122,123,126,128,126,124,123,122,121,120,120,121,121,121,120,121,121,122,123,122,123,123,122,124,125,122,121,121,117,117,120,122,123,122,120,120,121,122,122,122,124,123,123,123,122,122,123,125,125,123,122,122,121,120,120,121,123,123,123,123,123,124,122,123,121,120,119,120,122,122,122,122,125,127,127,127,126,123,121,122,123,121,119,118,119,123,123,121,121,121,122,123,124,124,121,120,120,122,123,123,124,124,123,121,120,122,124,122,120,118,117,117,120,122,122,123,123,123,123,124,123,124,124,124,126,125,123,121,121,120,118,116,118,122,125,127,126,126,127,126,125,124,122,122,123,121,120,120,121,121,119,118,120,121,123,123,123,122,121,120,122,124,126,125,123,122,122,122,122,121,120,119,121,120,120,120,122,123,123,121,120,121,122,122,123,124,123,123,125,127,127,123
122,123,123,122,121,120,120,119,121,119,120,123,125,125,122,120,118,119,121,119,120,120,118,122,125,126,125,125,127,127,125,121,120,120,121,122,123,123,122,122,123,121,121,122,120,120,121,122,122,126,127,125,123,122,122,121,124,123,120,120,121,124,126,125,124,122,120,121,122,120,121,120,120,122,121,121,122,122,122,123,124,125,123,122,120,119,118,119,121,123,122,120,120,123,124,125,126,126,124,121,122,122,123,123,123,121,122,122,121,121,123,123,123,124,126,124,125,125,123,120,120,120,121,120,119,120,123,126,125,123,121,121,123,122,122,122,123,123,122,121,120,120,122,124,122,121,121,122,118,119,121,124,122,121,120,122,123,123,123,124,122,122,123,121,121,122,125,125,125,125,125,125,122,121,120,120,121,124,126,124,123,123,122,119,118,118,119,121,122,122,122,123,124,125,124,122,123,122,124,123
124,124,123,122,119,121,120,118,116,117,118,123,127,128,126,124,123,122,122,121,121,121,119,121,123,125,127,126,124,121,122,122,124,124,123,122,122,121,118,118,116,117,120,122,125,126,126,126,126,123,122,121,121,122,122,122,119,119,119,120,122,123,124,124,124,123,123,124,125,123,122,121,122,122,119,122,124,124,124,123,122,121,121,120,122,125,123,122,121,117,119,118,119,122,124,125,125,124,123,123,122,122,123,124,123,123,123,122,120,120,122,123,122,123,124,124,124,124,123,123,122,122,120,119,118,120,122,123,122,123,124,123,123,123,122,122,123,123,123,123,120,120,122,123,121,120,120,123,123,122,123,123,124,125,125,123,122,123,121,118,119,121,122,121,121,122,124,124,123,121,121,121,123,122,120,121,125,125,124,120,119,120,124,125,122,123,123,123,122,122,122,122,123,123,123,120,117,117,119,121
122,123,122,122,124,126,125,124,122,122,123,123,123,123,121,122,121,122,122,122,121,121,122,123,123,122,122,122,123,122,123,122,121,121,121,119,119,121,123,122,123,123,123,122,123,122,121,120,121,122,121,122,121,122,121,123,125,127,127,127,127,126,124,121,121,120,121,120,121,122,122,122,122,121,121,122,122,122,121,121,122,122,121,121,118,119,121,122,123,123,123,122,122,123,123,123,123,122,122,122,122,122,122,122,122,122,123,123,123,123,123,123,124,123,122,122,122,123,123,122,122,122,123,120,118,120,124,125,123,123,123,122,122,121,121,122,121,120,121,122,122,123,123,122,123,123,123,123,123,124,123,123,123,123,121,121,123,122,121,121,121,122,122,122,122,122,122,122,122,122,120,121,122,122,121,123,124,124,125,124,121,120,121,121,120,119,121,122,122,122,122,122,125,126,127,123,122,122,121,122
122,122,122,121,121,121,123,123,123,124,123,122,123,123,123,122,122,121,122,122,123,125,123,123,122,122,122,122,121,121,121,122,123,123,121,122,122,119,118,120,122,122,121,122,122,120,123,125,123,120,121,123,123,124,123,123,124,124,121,121,121,123,123,122,121,122,122,122,124,125,124,124,123,122,123,122,122,123,123,124,123,122,122,122,123,121,119,119,121,122,121,121,121,121,122,122,122,124,124,122,123,125,124,121,120,121,119,118,118,120,122,123,126,125,124,123,123,122,123,122,120,120,123,123,125,124,123,124,125,124,123,121,119,118,119,122,122,122,123,123,125,124,122,122,122,121,121,121,120,120,122,123,123,121,121,123,123,122,121,122,124,125,127,125,124,122,122,123,122,120,121,120,119,117,116,117,121,123,125,127,127,125,124,123,123,123,122,123,122,123,126,125,123,123,124,123,120,120,119,117
119,121,122,123,123,122,122,122,122,122,122,123,123,124,124,122,122,123,122,120,121,122,122,122,123,122,121,121,121,122,123,122,121,121,122,125,124,120,118,119,119,122,123,123,122,120,121,123,122,121,121,122,124,125,123,123,123,125,126,125,125,126,125,122,120,116,116,120,121,124,126,123,121,120,123,124,124,122,121,121,122,121,122,123,122,123,119,119,120,121,121,122,121,121,122,121,121,122,125,124,124,123,123,123,123,123,123,123,123,122,122,122,122,122,123,123,122,122,121,121,121,122,123,123,123,122,122,121,121,121,121,123,122,121,124,123,122,122,122,121,122,122,122,124,124,123,124,124,122,121,121,121,122,121,121,122,122,123,122,122,123,123,123,123,123,123,123,123,123,123,122,119,118,119,120,122,122,121,122,121,121,122,123,122,122,122,122,122,122,123,123,123,123,123,123,122,122,124,126,126
124,123,123,121,119,118,118,119,120,121,120,120,122,123,127,128,127,125,125,121,119,120,120,122,122,122,122,123,123,122,122,122,123,124,124,123,121,121,121,120,118,120,119,119,121,121,122,123,122,122,122,123,124,123,123,122,123,123,122,123,122,122,123,123,124,124,121,123,124,125,125,123,122,121,120,120,120,119,120,123,125,125,124,125,124,122,121,121,120,120,121,123,124,123,123,119,122,124,123,119,117,119,123,123,122,121,120,120,121,121,121,122,122,123,123,124,124,124,124,122,120,120,120,121,122,124,124,126,125,123,124,125,125,124,124,123,122,122,122,120,119,120,121,122,122,121,121,121,121,122,123,123,122,122,121,122,122,122,122,122,122,121,119,120,122,123,123,122,123,123,124,125,124,123,123,122,122,119,117,117,121,123,123,125,124,123,123,122,123,123,123,122,121,120,122,124,126,126,123,122
123,121,121,120,121,123,123,122,120,120,120,120,122,123,121,120,121,122,122,122,121,120,123,125,125,126,125,124,124,122,119,119,121,123,124,125,122,124,125,124,121,120,119,120,122,123,124,123,122,121,123,124,123,124,122,121,121,120,120,120,121,120,121,122,122,122,122,122,123,126,125,124,124,125,127,127,125,121,121,117,114,114,117,118,120,121,122,122,120,123,126,128,127,125,123,122,121,123,123,123,122,122,121,122,123,121,119,118,119,120,121,120,119,120,123,124,124,124,124,125,124,124,122,122,124,123,124,123,122,120,121,124,127,132,130,129,126,125,124,123,121,118,117,116,116,119,120,119,119,118,118,118,118,116,115,118,120,125,125,125,124,123,123,123,125,124,120,120,121,123,123,125,125,125,124,124,124,124,124,124,123,120,119,118,120,122,122,124,124,125,125,123,123,122,120,119,119,121,123,124
124,123,122,119,120,119,120,120,119,120,122,126,123,122,123,124,123,123,121,121,119,121,124,127,127,126,125,126,125,125,125,126,126,124,123,118,116,113,114,115,114,116,118,120,121,123,123,124,126,126,124,125,126,128,128,127,124,122,120,119,119,118,115,116,119,121,122,123,124,124,123,123,123,123,122,122,124,124,125,124,123,123,124,124,124,122,121,122,124,120,121,120,120,120,118,118,120,122,120,120,119,122,125,128,127,129,127,127,126,128,125,123,118,119,118,120,121,119,119,120,120,119,117,116,116,118,119,121,122,125,126,127,126,124,124,125,123,125,127,126,122,119,121,118,118,120,125,126,128,126,127,126,127,125,122,122,121,121,121,122,124,122,120,121,121,119,122,122,124,123,121,121,123,122,120,118,112,112,115,116,117,118,119,121,121,124,127,128,126,124,127,126,124,122,119,121,124,126,126,124
127,127,123,119,116,116,117,117,118,119,120,121,123,127,130,130,128,126,124,123,123,123,124,124,123,123,125,122,121,119,112,108,107,112,114,116,121,126,130,136,140,139,134,132,130,125,125,123,121,121,122,124,122,120,120,119,117,116,114,111,112,113,112,113,116,118,119,123,127,133,134,129,129,128,128,132,131,127,128,126,123,123,124,121,117,115,112,108,111,111,113,117,121,120,120,120,119,119,117,116,117,118,118,120,124,129,131,134,137,139,142,139,139,135,131,129,127,123,118,117,116,112,111,113,115,115,112,113,112,117,119,118,117,117,116,115,118,121,126,127,131,137,141,143,143,141,136,127,125,120,115,110,109,111,110,112,114,117,121,126,125,125,125,128,130,127,123,124,119,110,107,106,106,106,108,108,113,115,122,128,133,133,132,131,128,127,127,126,124,124,126,130,135,135,132,129,126,123,120,120
119,116,115,116,118,120,120,123,125,128,130,129,127,122,116,114,112,112,115,118,119,122,122,124,126,129,129,127,125,123,123,125,125,123,124,124,119,117,116,114,125,129,130,124,126,126,119,108,104,104,109,110,111,115,120,117,120,128,132,137,143,144,141,136,130,132,128,124,122,122,119,115,115,117,116,116,116,114,114,115,117,116,113,118,124,126,124,124,124,122,118,116,119,123,128,132,134,132,130,130,126,127,126,122,116,103,99,103,108,121,125,132,134,136,138,133,135,139,140,142,135,121,113,109,99,90,90,99,104,110,119,127,136,142,141,142,138,142,137,137,134,131,119,111,108,111,111,116,117,117,114,115,111,111,113,116,121,123,125,128,130,128,124,118,119,119,128,131,130,121,117,114,107,103,103,115,123,129,132,128,132,134,133,135,130,128,126,129,139,143,136,129,132,127,112,113,111,106,106,101
94,98,101,110,121,132,138,137,132,131,133,130,122,119,126,126,121,109,107,113,124,130,133,133,127,117,109,112,119,127,128,130,126,124,123,120,119,118,115,116,120,124,121,117,122,118,115,113,111,113,114,116,120,129,135,142,145,149,150,148,147,144,133,128,124,123,118,114,111,105,104,102,102,104,105,107,110,113,116,119,122,124,126,129,131,136,135,131,129,126,124,119,116,118,118,115,117,115,115,119,129,137,136,133,133,126,118,110,111,115,111,109,111,113,116,119,125,124,119,110,110,112,112,106,109,117,121,127,133,134,138,135,143,146,144,145,144,144,152,148,138,127,123,116,109,102,107,108,105,104,106,109,112,117,122,120,122,123,121,115,113,115,118,120,119,118,125,138,144,149,147,141,135,113,101,92,95,107,99,101,110,116,117,120,126,137,135,136,138,134,131,123,124,126,127,125,131,134,134,134
129,131,131,127,124,122,115,109,99,89,94,100,112,118,122,126,125,124,124,122,127,127,130,137,144,147,144,137,137,129,117,112,111,120,123,121,115,112,110,89,89,101,114,128,138,147,151,148,135,126,114,105,110,118,124,126,127,129,129,121,108,104,105,103,106,111,118,120,130,152,154,150,153,149,130,113,111,117,107,105,103,110,115,116,117,118,115,114,115,120,124,130,136,135,129,121,118,111,106,116,120,121,125,128,132,128,128,131,133,135,133,133,127,115,109,107,106,109,114,117,118,115,115,119,125,129,131,134,137,145,144,144,147,146,143,135,130,121,104,100,104,110,119,123,116,113,116,109,98,88,94,96,101,106,107,108,111,120,132,136,143,147,150,147,141,139,140,139,136,138,136,129,119,116,113,113,116,122,128,123,115,107,99,84,82,99,112,122,129,137,141,141,146,144,141,135,132,127,109,106
103,102,104,109,113,125,136,141,144,142,130,119,111,111,110,110,109,112,113,113,119,123,127,132,136,136,139,137,137,147,143,127,123,119,102,84,92,104,110,120,129,137,140,144,148,147,140,138,133,125,120,115,109,109,107,94,90,97,103,104,108,111,107,101,107,121,133,146,146,146,149,145,137,137,133,130,126,124,131,133,132,128,121,109,98,98,103,110,114,113,112,117,114,110,112,122,121,122,123,125,121,127,131,136,138,140,140,143,139,128,129,128,126,124,125,129,127,123,116,113,106,91,93,98,108,112,110,111,116,123,129,133,142,150,151,149,150,146,132,123,118,109,92,103,115,121,121,122,126,122,113,111,115,121,113,112,117,126,123,115,133,139,134,132,126,120,124,125,116,113,117,125,127,126,123,125,123,115,122,121,122,116,117,113,111,110,109,109,114,118,127,128,127,126,123,117,112,116,117,121
125,130,140,148,155,164,164,158,143,134,127,127,128,120,116,109,97,89,92,89,91,89,90,94,103,109,121,131,136,139,136,138,144,145,146,140,137,133,130,130,132,137,134,128,120,109,95,83,90,94,99,105,110,118,122,128,138,140,139,141,142,139,136,136,133,131,135,128,113,108,102,97,99,108,122,130,127,132,134,136,118,110,111,114,104,96,102,106,110,126,122,120,121,128,138,146,146,151,150,146,138,136,127,130,129,125,124,116,106,108,118,126,124,116,113,106,95,103,117,126,128,127,129,129,127,127,125,121,115,110,109,109,112,113,111,108,106,109,111,111,119,123,127,127,131,137,130,125,129,132,133,139,145,146,148,136,130,132,136,136,136,136,131,122,112,105,99,99,105,107,110,110,111,112,116,121,135,135,130,131,129,125,118,109,99,94,96,99,99,103,112,119,117,120,129,131,133,138,139,143
147,144,140,135,134,135,135,134,127,125,124,122,125,129,130,133,142,146,139,130,121,112,103,97,98,101,103,108,108,109,109,111,115,119,118,117,117,115,113,116,118,117,120,120,121,125,121,117,112,116,121,126,127,123,124,123,120,120,119,121,125,129,135,143,148,153,163,160,159,145,126,119,111,108,106,99,103,106,109,116,123,132,134,130,129,130,126,121,121,118,114,107,106,107,107,109,109,107,106,112,114,117,121,126,129,135,136,135,134,131,129,124,125,123,118,119,121,121,121,117,116,117,115,117,117,119,121,123,130,136,135,135,131,129,130,141,143,140,133,125,114,107,102,102,104,108,113,114,115,118,125,123,121,120,115,117,120,124,127,131,129,124,121,122,124,127,128,127,122,123,123,119,112,108,119,121,124,127,129,131,130,127,126,129,128,127,130,124,118,118,119,121,124,126,128,123,117,112,114,113
111,112,116,119,120,124,130,127,128,128,125,124,121,121,120,121,122,120,117,114,116,115,115,120,118,116,118,120,127,131,135,140,140,136,133,129,130,130,129,122,109,106,107,107,107,109,110,115,120,130,134,137,140,142,137,132,123,125,123,121,118,119,118,118,116,120,121,116,113,107,104,106,110,111,113,115,121,123,128,138,141,140,139,139,139,132,130,127,123,123,123,124,118,116,118,117,116,117,123,124,116,114,113,110,111,113,118,118,117,114,113,117,122,128,131,131,132,133,130,126,126,125,126,128,131,130,130,126,119,113,115,117,117,116,118,117,116,115,117,123,124,122,122,120,123,130,131,127,125,126,124,122,117,118,118,122,124,124,119,118,117,113,114,119,122,125,128,138,140,132,130,128,126,128,128,127,125,124,123,124,124,125,120,110,106,106,104,103,105,108,116,121,126,133,134,135,134,130,125,124
126,127,126,124,124,123,118,117,119,119,119,122,124,128,119,116,114,113,113,111,112,112,113,116,124,133,143,136,130,126,122,122,123,124,122,129,134,136,132,130,126,131,130,130,130,133,134,128,121,119,117,115,114,111,111,108,107,108,112,115,115,116,116,118,117,115,116,116,118,122,123,123,125,128,125,122,123,125,123,123,125,129,131,137,134,131,130,129,124,117,115,113,114,111,110,115,117,114,123,129,127,131,130,133,139,139,134,129,128,129,127,126,127,124,116,113,117,115,116,115,110,112,116,121,122,121,121,119,121,125,124,123,123,124,125,126,127,125,123,121,119,119,117,113,114,113,112,116,121,123,124,122,118,118,122,126,124,124,124,121,121,119,118,113,117,120,123,128,132,136,134,137,138,140,139,136,130,127,124,123,118,118,120,119,118,115,111,112,118,119,118,119,118,118,118,120,120,117,118,118
121,122,118,115,117,120,123,124,125,123,126,128,126,128,128,125,125,123,118,118,117,117,122,125,126,125,122,119,119,120,122,122,122,124,123,120,119,121,125,131,131,129,124,122,120,120,118,118,115,117,122,128,130,129,128,126,124,120,120,122,120,121,125,126,127,122,122,118,112,113,117,120,126,125,128,133,137,134,122,108,108,117,117,121,125,127,125,124,123,121,121,121,123,122,119,116,114,113,117,119,119,121,122,123,122,122,122,121,121,121,121,125,126,125,125,124,125,124,124,124,123,122,121,122,123,123,124,124,123,122,119,118,119,124,125,124,124,124,124,122,123,125,124,122,121,122,124,125,126,124,123,124,123,121,121,123,121,118,112,117,117,121,125,125,125,123,123,122,121,123,122,123,121,117,116,120,124,126,125,122,122,124,124,123,123,122,122,122,121,121,121,120,121,121,121,121,121,121,121,122
122,121,121,121,122,122,122,122,122,122,122,122,121,122,122,122,123,124,124,125,124,123,123,122,119,116,117,122,125,127,126,122,123,124,123,122,124,125,123,122,120,116,115,124,130,132,127,126,127,120,118,119,122,120,121,123,120,121,120,119,123,128,127,124,123,122,121,122,122,122,122,122,121,121,122,121,121,122,121,121,121,121,121,122,122,122,122,122,121,121,122,122,123,122,123,122,122,122,122,122,122,122,122,121,122,123,122,122,122,122,122,123,123,122,123,123,121,121,122,123,122,121,122,121,122,122,122,122,121,120,121,123,121,124,125,125,124,123,121,119,120,120,121,122,124,121,118,120,120,122,126,126,126,124,123,122,122,121,121,121,123,123,122,122,122,122,122,122,122,123,122,122,122,122,122,122,122,122,122,123,122,122,122,122,122,122,122,122,122,122,122,122,122,122,122,122,122,122,122,122
122,123,123,123,123,122,122,123,123,122,122,121,122,123,121,122,122,123,123,122,123,123,123,122,121,123,123,122,122,122,121,121,123,124,124,123,121,121,122,123,121,118,120,124,123,124,122,122,123,123,123,122,121,120,122,123,122,122,121,121,122,122,122,122,122,122,122,122,122,121,122,122,123,123,122,123,123,123,123,123,124,123,123,122,122,122,123,122,123,122,123,123,122,123,122,122,122,121,122,122,122,121,120,120,123,124,123,123,123,122,123,123,122,123,122,122,121,121,120,123,123,124,122,121,122,122,124,125,124,124,123,122,119,116,118,120,121,125,125,124,122,121,122,122,123,122,121,120,123,125,125,125,125,125,124,123,122,121,121,123,124,124,123,123,124,125,122,113,115,117,119,119,120,121,120,120,121,121,121,122,124,124,122,124,126,124,124,124,125,124,123,122,122,121,122,123,123,122,120,122
122,121,120,118,120,122,126,128,127,125,123,121,119,120,122,123,123,123,122,121,122,122,122,122,121,121,120,120,121,123,124,124,124,123,124,122,118,116,114,119,123,125,124,124,126,124,123,122,123,123,123,122,122,122,122,121,121,122,121,120,121,123,124,124,124,123,124,123,122,122,122,122,119,117,119,123,125,125,125,125,124,123,120,120,119,119,120,121,121,122,122,122,122,121,122,122,123,124,123,123,124,123,123,121,120,120,122,123,124,124,124,123,122,121,121,120,121,122,123,125,124,123,123,124,124,124,123,121,120,120,121,122,123,124,123,121,121,122,123,124,125,126,125,124,123,123,120,117,117,118,120,120,121,120,120,121,121,121,121,120,122,123,124,124,123,122,123,123,122,121,121,121,121,121,120,121,123,121,121,121,123,124,126,128,127,125,122,121,122,121,121,119,119,120,122,125,126,127,125,123
122,121,121,120,120,121,121,122,122,122,122,124,123,123,121,121,124,125,126,129,130,128,125,122,121,117,114,117,121,121,121,121,121,121,122,123,122,120,122,123,123,122,120,121,119,120,119,117,121,127,130,130,129,129,127,123,118,117,115,115,115,115,117,119,123,125,127,128,126,125,125,123,122,123,125,125,124,125,124,124,123,122,125,124,124,125,125,125,124,123,122,118,116,117,116,116,118,123,124,125,124,123,121,117,118,119,116,116,119,121,123,124,124,123,124,125,125,124,127,124,123,122,124,124,121,120,122,127,129,129,126,126,123,119,118,118,119,118,120,120,122,124,124,125,125,124,125,125,127,127,122,119,119,121,121,116,118,119,120,120,119,117,118,120,124,124,121,123,122,123,125,125,124,122,118,115,115,116,122,123,122,122,123,121,118,118,118,123,127,128,129,131,131,130,127,124,123,123,120,120
121,122,123,125,128,127,125,123,121,122,120,117,119,121,121,120,122,123,121,120,119,118,119,123,124,125,125,123,122,122,122,122,123,124,123,121,120,119,117,118,119,117,118,116,117,119,120,120,121,121,122,121,121,121,121,122,120,122,124,129,131,133,133,131,128,126,122,118,124,127,126,126,123,117,109,109,113,116,118,118,119,118,122,130,130,130,130,127,126,121,117,119,118,120,121,119,117,115,118,119,119,123,122,117,116,120,123,127,125,124,123,123,123,125,123,120,120,124,128,132,133,134,134,130,127,127,125,124,124,124,124,124,121,120,120,118,117,116,115,112,112,112,111,117,120,116,115,118,121,118,117,119,124,124,125,126,126,128,129,131,133,133,131,131,129,128,125,123,121,121,122,122,120,118,123,122,120,118,118,115,116,121,123,120,118,119,119,118,118,116,114,114,121,127,133,137,134,129,126,124
123,119,116,115,116,118,123,122,123,127,127,126,126,126,124,119,116,114,116,114,115,121,124,122,121,122,123,123,123,125,126,120,118,120,118,118,121,124,124,127,131,133,128,127,123,123,126,125,125,129,132,127,126,125,116,115,114,108,107,110,116,118,123,134,135,138,135,132,129,125,122,119,119,117,116,116,116,114,113,118,123,128,131,130,122,118,120,118,116,120,128,126,124,124,125,124,122,121,119,120,119,118,121,118,113,112,113,111,118,119,123,119,116,121,128,132,131,127,125,120,115,121,130,135,139,138,133,132,132,131,130,126,124,123,122,117,112,112,111,112,112,114,115,113,115,119,121,119,120,125,125,123,122,122,126,132,134,136,130,127,127,124,128,129,128,127,124,120,115,116,122,121,115,112,113,113,111,120,124,123,118,115,121,133,135,134,131,126,119,120,119,118,121,119,109,102,109,113,106,104
106,112,115,118,123,128,137,141,139,140,141,135,126,117,117,122,121,120,119,124,131,132,133,138,135,127,121,120,120,121,120,121,119,124,136,141,145,148,141,134,108,102,94,88,89,89,99,104,107,111,110,108,116,123,129,133,134,139,137,133,134,137,136,135,130,128,130,126,121,121,128,127,127,121,113,106,105,107,114,118,116,118,124,122,125,123,127,129,129,128,136,139,131,125,114,105,90,98,110,117,119,123,127,130,136,139,138,134,129,110,107,111,118,128,133,137,139,139,141,124,102,94,106,111,130,135,130,115,117,119,125,119,111,124,127,124,113,112,105,102,105,109,118,126,133,138,143,140,136,140,147,156,156,160,149,132,111,96,85,81,100,112,120,111,109,111,111,114,115,111,107,107,118,120,127,128,128,131,130,136,139,133,133,131,131,127,122,116,108,103,112,127,144,160,165,169,155,137,107,83
89,96,111,109,109,116,108,111,111,102,102,110,104,103,113,117,120,120,114,110,119,119,117,122,131,138,139,142,146,154,160,160,150,142,135,134,130,125,119,115,116,111,107,111,109,108,109,110,116,119,124,129,131,135,133,126,131,132,127,122,124,120,119,119,117,107,103,112,113,118,129,140,128,110,108,112,109,115,115,118,118,111,107,129,149,150,156,146,116,79,96,136,143,144,139,124,102,92,89,87,93,105,109,114,120,123,124,125,126,124,132,136,134,137,134,135,139,143,145,146,151,149,137,131,120,121,119,114,112,111,117,123,128,120,113,117,109,119,128,129,125,127,124,128,126,122,115,116,117,119,120,118,119,121,119,117,116,104,89,99,111,117,118,117,116,121,128,134,135,132,130,133,144,143,131,114,104,112,117,114,126,145,140,132,135,118,97,89,98,106,115,129,131,136,148,148,146,138,130,116
109,123,127,117,119,127,138,134,130,121,116,107,101,103,106,97,96,98,97,93,96,104,116,126,141,141,140,136,135,142,158,159,157,158,164,153,141,133,133,132,124,120,108,98,96,99,105,107,110,113,114,109,106,105,103,111,113,117,115,111,111,117,116,122,132,139,146,143,133,126,127,124,125,127,123,117,115,117,118,119,116,118,126,130,133,134,130,120,116,114,112,112,117,121,121,121,122,124,123,122,115,113,117,121,125,122,119,123,128,122,125,131,129,126,133,133,133,134,130,127,125,123,115,113,121,122,119,126,146,133,122,117,121,134,140,138,134,124,116,114,110,113,111,114,117,117,114,104,99,94,90,99,107,114,115,116,121,126,129,135,138,140,144,146,144,144,142,135,122,115,113,117,115,115,114,112,113,121,121,121,126,130,134,131,128,122,117,116,108,109,112,117,129,135,136,134,131,125,120,121
122,125,125,125,118,112,109,109,108,106,109,109,112,130,134,135,137,140,142,135,134,135,126,118,124,130,124,122,117,103,87,88,103,109,109,112,114,120,129,142,152,154,145,145,142,135,132,129,123,119,117,120,127,123,123,123,117,109,102,92,93,104,111,122,126,121,124,129,136,133,126,124,128,135,131,125,122,123,127,134,138,136,129,117,111,89,81,82,86,95,107,122,131,131,138,141,140,135,129,130,114,114,125,130,127,125,126,117,124,130,138,143,138,140,136,142,144,147,129,132,136,122,113,113,108,103,101,101,100,101,100,100,104,106,108,113,116,120,126,133,136,134,136,132,119,106,103,107,115,118,116,118,125,133,140,145,151,155,149,143,138,129,116,119,120,114,111,107,112,114,111,105,103,109,114,120,125,123,112,117,123,127,131,131,128,130,129,120,119,121,126,128,127,128,131,127,122,118,117,117
121,123,124,118,117,120,126,129,129,133,132,131,131,132,131,132,126,122,119,113,117,116,117,117,111,104,96,97,106,116,123,133,137,137,137,131,122,120,119,116,117,117,115,118,125,130,136,133,128,130,124,121,121,121,117,113,113,118,114,108,113,118,122,130,120,116,117,113,108,113,123,134,135,137,141,133,124,125,131,137,132,128,124,119,119,125,126,128,130,136,136,131,123,120,118,115,106,105,106,106,112,119,123,127,129,125,125,125,125,123,116,116,119,123,121,118,121,124,123,117,114,117,113,114,114,111,111,116,127,130,133,131,135,137,137,138,137,130,126,117,113,111,111,104,102,105,111,114,116,119,117,124,134,140,137,135,136,142,141,138,135,130,127,124,124,114,111,111,112,115,117,118,122,124,122,126,130,127,124,124,123,121,116,113,110,107,101,99,94,97,98,104,111,118,124,125,130,136,141,146
152,152,152,146,131,127,125,122,119,123,125,124,125,128,133,131,127,121,124,127,121,112,109,105,99,104,108,113,116,120,124,125,126,126,130,135,127,122,119,120,119,120,120,119,117,115,115,119,121,118,115,118,120,121,118,113,108,110,112,113,121,125,131,141,142,146,144,138,140,138,131,129,127,125,126,118,118,120,120,118,119,125,125,119,113,119,125,125,130,133,124,117,114,107,107,109,113,115,120,120,121,118,121,124,123,117,113,110,103,101,104,107,110,115,120,124,129,133,139,139,129,131,131,127,127,129,128,132,135,140,142,140,138,139,139,136,129,121,118,119,119,120,116,109,109,111,113,119,122,122,123,124,122,120,116,112,109,111,110,109,113,115,110,109,115,119,125,127,126,123,124,122,121,122,125,127,125,127,129,126,124,118,118,111,108,114,120,124,129,134,138,140,150,154,146,140,138,136,131,128
125,118,113,106,101,101,101,104,108,107,104,110,125,133,132,128,118,119,121,128,125,125,131,132,131,132,128,126,118,113,114,122,125,117,110,109,109,112,115,116,115,117,118,120,118,125,132,131,132,129,130,136,142,141,137,137,136,136,131,123,118,119,120,118,112,108,103,107,102,99,106,105,105,112,119,121,121,122,121,122,126,128,127,131,140,149,150,146,137,129,125,120,121,123,124,117,114,116,119,123,120,112,104,105,112,115,111,108,112,118,128,131,131,134,136,136,135,136,128,131,136,134,131,126,119,114,110,105,103,104,115,128,133,135,130,128,122,116,116,106,101,101,112,121,125,127,127,128,126,123,119,120,119,119,120,125,126,120,123,128,131,128,128,128,123,118,117,117,118,119,117,117,124,129,130,127,125,125,125,126,130,135,133,132,131,130,128,125,122,117,114,115,115,114,116,116,115,118,121,125
129,129,121,116,116,118,120,121,117,119,128,132,127,122,119,121,124,121,120,120,122,122,122,118,119,119,119,119,120,122,122,124,119,116,115,115,115,115,125,128,130,127,124,122,120,118,118,124,128,128,128,124,120,120,120,119,122,120,123,124,122,122,123,127,128,125,123,124,125,127,127,125,126,127,123,123,125,123,122,122,127,130,128,125,120,116,119,123,125,127,126,121,117,120,120,121,116,116,117,115,119,119,120,122,121,119,117,116,113,108,116,125,132,129,126,126,126,124,123,122,124,123,124,125,127,127,123,121,122,121,118,119,124,124,123,122,123,128,126,121,123,123,123,119,118,118,122,122,121,119,122,123,121,118,120,124,124,125,123,122,122,123,124,122,119,118,119,122,122,123,121,120,122,121,119,121,123,124,124,125,125,123,122,122,121,122,124,125,124,125,123,124,123,124,123,121,120,119,120,120
121,122,124,119,120,122,125,125,123,123,123,123,124,122,122,122,121,120,121,122,123,122,124,125,125,125,125,121,120,118,118,119,121,124,123,122,123,125,124,125,125,124,125,125,124,118,113,111,113,119,121,124,123,124,125,124,122,123,124,123,123,122,122,122,122,122,122,122,121,122,122,121,122,122,121,121,121,120,120,121,122,122,123,123,124,124,123,122,122,122,123,123,123,121,121,121,121,122,123,124,124,123,123,123,122,121,122,123,120,120,121,126,124,123,122,121,121,121,122,122,121,122,122,122,122,122,122,122,122,121,121,122,123,123,123,123,123,123,122,123,123,123,124,124,123,122,122,121,121,121,122,122,122,122,122,122,122,121,121,122,122,121,120,121,123,127,126,125,123,122,122,122,122,122,121,120,121,122,122,121,122,121,122,122,122,122,122,122,121,121,120,121,122,123,123,123,124,125,125,124
123,122,121,121,121,122,121,121,121,121,121,122,122,122,123,124,123,123,122,122,122,121,122,122,122,122,121,122,121,122,124,125,123,122,122,121,121,122,121,121,121,124,124,122,122,123,125,125,124,123,123,120,119,117,117,122,125,126,125,125,125,125,124,122,119,119,120,122,122,123,124,123,121,121,120,121,122,122,121,123,122,123,122,124,124,122,123,124,125,124,122,118,118,118,121,123,123,122,122,123,122,123,123,122,120,120,121,121,122,124,125,124,123,123,123,121,122,124,124,125,124,124,122,122,124,124,123,122,121,119,118,119,122,123,122,122,122,123,122,122,120,120,121,119,119,121,122,125,125,124,123,123,120,120,121,122,122,124,123,122,121,120,122,125,126,125,122,118,118,123,125,125,129,126,125,123,121,120,119,120,121,122,122,121,120,121,120,121,123,124,124,122,121,121,121,118,119,122,123,123
123,123,124,124,124,124,123,123,123,122,121,123,124,122,119,120,121,123,122,121,121,120,119,118,122,123,123,124,123,123,123,124,123,122,121,121,121,120,121,123,124,121,122,123,124,124,123,122,121,122,121,122,123,124,124,123,123,122,122,123,123,122,120,121,121,122,123,123,124,124,123,121,120,121,120,120,122,123,124,124,123,123,123,123,122,119,120,121,122,124,123,122,121,122,123,123,124,123,122,119,119,120,121,121,122,124,125,125,124,120,117,117,118,123,124,122,120,122,123,125,125,125,124,123,123,125,125,125,126,125,124,123,122,121,121,120,119,120,122,120,123,126,127,127,125,122,120,119,117,118,121,121,120,123,122,123,124,125,123,122,121,119,120,123,124,124,123,124,126,128,129,128,128,125,123,120,116,117,120,122,122,125,127,126,127,125,125,124,123,122,121,116,110,106,115,119,120,122,125,126
126,127,128,129,125,123,119,119,118,117,117,123,129,128,125,125,125,125,126,124,125,124,123,121,121,123,121,122,120,121,118,114,111,113,112,113,116,119,120,123,122,123,126,129,133,132,129,127,124,121,119,115,114,115,120,123,126,129,128,128,124,121,119,117,114,119,123,122,123,125,125,128,127,127,124,121,120,122,121,122,123,122,120,117,116,120,122,124,126,126,128,130,124,118,114,116,115,115,118,121,121,124,124,120,118,122,123,123,122,122,120,124,125,125,123,123,126,124,119,119,116,115,114,113,119,124,126,126,128,128,127,125,122,118,116,116,118,120,122,122,123,125,126,127,127,123,122,125,128,130,131,129,126,124,121,119,121,123,123,126,128,129,130,131,130,120,116,114,109,107,108,111,115,114,112,113,116,122,128,133,134,131,127,119,119,121,123,121,118,116,116,117,123,127,126,121,116,115,115,119
125,121,121,119,125,129,131,131,128,123,120,123,124,121,120,120,124,128,132,135,129,123,128,130,128,127,125,119,115,118,115,118,119,117,118,119,119,121,123,127,124,123,120,111,113,119,122,128,135,131,123,116,120,118,119,121,125,128,123,124,124,123,123,120,118,115,111,111,112,114,117,121,122,127,130,137,134,134,129,130,133,130,123,120,123,123,122,123,120,116,114,120,127,129,123,120,121,121,118,118,121,116,107,118,121,121,108,110,108,109,113,116,121,123,126,129,129,125,122,117,115,119,123,126,131,137,142,141,138,137,131,129,129,126,123,121,130,132,131,129,130,126,121,120,125,130,130,125,120,109,101,101,102,103,109,109,108,113,119,125,123,124,125,126,127,130,131,129,128,123,112,114,120,120,122,124,120,115,117,118,123,131,133,135,132,127,126,118,108,102,100,101,104,114,114,115,122,134,142,143
141,139,140,136,126,118,115,114,115,117,116,117,121,130,137,134,130,134,131,131,130,130,129,128,129,132,131,124,111,104,96,89,92,110,123,127,127,122,116,108,111,119,126,129,129,123,119,118,120,123,121,122,123,124,126,125,120,116,116,118,123,126,123,121,122,125,125,125,128,124,124,124,125,122,120,121,121,122,120,120,119,117,121,126,124,127,133,133,130,134,130,126,128,132,133,127,127,123,125,131,135,129,128,123,118,120,124,120,117,110,108,108,111,113,113,118,115,108,103,99,106,115,121,122,123,119,113,107,109,108,113,120,128,137,144,145,149,151,143,136,144,143,132,123,115,109,99,92,95,109,112,112,110,108,109,118,120,125,128,137,145,135,127,128,135,140,145,147,148,146,137,132,138,143,145,146,136,113,80,71,73,71,86,95,97,103,111,118,115,111,119,119,120,121,132,137,136,139,144,145
138,145,133,119,110,122,136,136,130,112,114,115,125,129,128,122,125,127,117,116,113,110,111,117,131,136,131,123,125,134,132,122,111,78,67,75,87,108,115,121,125,128,139,142,143,147,151,154,157,153,157,164,168,156,136,117,95,96,114,117,111,108,102,91,97,98,101,102,93,94,101,102,95,103,120,136,143,152,157,154,145,134,124,131,132,140,150,145,137,126,122,115,109,104,110,115,114,109,105,102,105,108,113,114,118,122,126,125,127,126,126,126,125,127,132,135,134,126,114,98,89,101,113,121,127,133,137,140,141,141,139,138,139,137,133,131,127,116,109,113,104,105,110,113,110,100,100,104,107,111,116,123,123,131,139,141,150,146,139,134,136,139,135,130,129,126,124,124,129,133,136,141,142,138,133,124,111,96,96,100,101,108,112,109,106,101,101,109,116,120,119,114,116,121,122,122,129,129,114,112
118,121,116,116,129,133,134,124,120,114,112,115,120,126,130,135,137,139,135,120,123,121,122,123,128,128,128,129,129,127,128,128,127,124,125,124,120,119,122,126,127,125,125,128,127,128,130,132,132,127,126,123,118,115,109,111,113,112,107,110,113,117,119,121,123,123,120,116,114,114,113,112,111,113,114,114,113,112,116,115,118,123,131,131,137,142,140,135,135,136,132,123,125,125,125,126,124,120,121,122,120,117,116,113,114,114,125,127,129,127,127,129,133,138,136,133,134,133,119,112,104,105,112,118,115,113,115,117,115,114,114,119,121,125,128,127,122,113,120,122,117,119,125,121,121,121,115,117,128,144,146,138,139,140,131,123,119,124,127,128,126,120,117,119,122,127,130,129,128,113,106,104,102,101,105,104,107,109,112,117,112,99,97,99,117,123,125,134,141,145,147,147,146,139,130,134,139,136,133,119
114,112,119,122,123,119,112,114,123,130,135,140,140,139,128,122,121,115,110,110,113,115,120,130,132,124,126,130,126,131,132,131,119,109,99,88,90,92,101,111,118,121,116,114,115,116,120,125,132,132,131,132,134,135,134,132,121,120,122,120,119,115,112,116,121,129,136,138,144,143,138,130,128,121,121,122,123,125,123,122,126,127,127,130,132,132,136,133,126,116,112,113,113,108,105,98,97,101,97,100,105,110,115,118,124,124,130,131,134,136,138,139,140,139,132,122,116,121,119,114,116,118,116,115,122,129,133,136,136,130,129,124,117,111,113,114,118,122,124,123,123,120,117,114,117,120,127,127,128,130,125,122,121,122,122,124,126,128,127,126,121,113,110,108,111,110,109,114,117,117,120,123,126,127,124,121,125,128,131,135,135,133,134,133,131,129,129,129,126,122,120,120,123,124,123,123,122,123,127,128
127,124,120,119,118,112,111,110,110,113,116,116,108,107,107,105,109,105,110,110,115,125,135,142,148,151,152,146,140,132,129,128,122,119,119,118,119,118,117,117,121,125,121,116,114,113,116,118,113,117,124,123,123,128,128,127,132,138,133,126,121,116,116,119,119,120,117,113,113,121,125,127,127,122,119,121,119,111,107,110,112,111,114,120,129,138,148,157,159,146,133,128,124,116,111,104,102,109,115,120,121,122,127,132,135,132,128,124,119,110,101,101,97,101,106,107,105,114,121,124,127,130,133,137,136,137,141,138,126,124,125,124,126,128,129,131,132,132,132,133,129,119,118,111,101,103,109,113,114,114,119,119,120,127,127,125,128,127,127,125,123,124,125,122,123,132,130,125,118,116,120,114,117,119,116,114,114,110,113,115,119,126,131,131,129,124,120,120,121,123,123,127,128,133,133,130,131,135,129,128
126,125,124,122,121,118,112,102,100,103,106,103,104,112,115,121,127,131,137,145,142,134,131,128,116,112,115,116,118,123,129,132,132,140,140,135,135,127,124,121,119,117,119,119,118,119,116,115,114,121,121,119,119,118,117,113,113,113,106,100,103,115,115,114,121,125,129,132,132,131,139,139,136,135,133,130,126,116,112,113,111,111,115,118,123,124,125,133,130,122,121,127,128,127,127,127,127,128,131,138,137,140,134,126,125,118,115,116,114,112,110,108,109,108,108,111,110,107,111,116,117,122,124,123,124,125,130,128,127,129,123,115,115,121,120,121,123,126,130,136,145,147,137,130,121,119,120,121,118,114,113,114,113,117,121,118,111,117,120,124,125,124,128,128,131,131,127,128,128,126,123,120,115,114,116,120,121,120,119,121,123,123,121,121,117,117,118,119,122,124,125,127,129,126,120,121,125,124,122,123
121,120,118,117,117,118,119,119,121,120,122,121,121,123,128,127,125,122,121,121,124,126,123,119,122,122,123,124,126,131,133,131,130,128,123,118,119,121,123,121,121,118,114,112,113,114,113,112,110,113,116,119,118,115,114,117,122,126,129,137,137,139,142,141,139,135,129,125,121,120,124,129,130,129,126,127,127,124,119,116,112,111,112,114,115,113,113,114,114,117,120,122,121,119,123,128,128,127,126,122,119,116,118,124,133,136,134,128,125,121,113,114,111,116,126,130,129,131,130,124,113,110,116,116,113,115,122,129,133,131,129,127,126,125,119,118,119,116,116,118,119,120,123,124,123,122,121,116,116,121,124,124,124,122,123,126,128,128,127,125,124,122,121,120,121,120,118,119,121,120,120,121,120,121,122,123,123,123,124,121,118,116,120,122,122,120,120,120,122,120,119,116,116,118,124,127,133,132,132,127
122,120,120,119,118,118,123,125,122,118,117,112,111,118,120,127,131,135,132,127,125,122,118,117,119,121,125,122,122,124,125,127,127,127,124,121,117,117,119,124,126,125,128,129,127,123,122,121,117,122,124,122,120,118,119,119,120,121,122,122,121,121,121,122,122,122,122,123,122,122,122,122,122,122,122,121,121,121,121,122,120,121,121,121,123,123,122,122,122,122,122,121,121,122,122,122,121,122,121,121,122,123,123,122,123,125,123,122,122,122,122,122,125,124,122,122,119,119,123,124,126,122,125,124,124,127,126,126,125,123,123,123,125,127,125,124,124,123,121,119,119,118,120,121,118,116,116,119,119,121,121,123,123,123,123,123,123,122,122,122,122,122,122,122,122,122,122,122,122,122,122,122,122,123,123,123,122,122,122,122,123,123,122,122,123,122,123,122,122,122,122,122,122,121,122,122,122,123,123,122
122,122,122,121,121,121,120,122,124,124,123,122,122,122,122,122,123,123,123,123,122,123,121,119,118,120,122,122,121,121,122,122,122,123,123,123,123,122,122,121,124,125,124,124,123,123,122,122,122,123,122,122,122,121,122,122,121,122,122,122,122,121,122,122,122,122,122,122,122,123,123,122,123,122,122,122,123,123,123,123,122,123,122,122,122,122,122,122,122,122,122,122,122,122,123,122,122,122,121,121,122,122,123,123,122,121,121,121,122,123,123,122,121,120,122,123,123,122,123,122,121,121,122,123,125,124,123,123,123,123,122,120,119,119,122,123,125,124,124,123,123,123,122,122,122,121,122,122,122,122,122,122,122,121,122,121,122,122,123,122,122,122,122,122,123,123,123,123,122,121,120,119,121,123,126,126,124,122,122,122,121,122,122,122,122,122,122,120,122,122,122,123,122,122,123,122,122,122,122,122
122,122,122,122,121,119,119,119,121,123,124,123,122,121,122,122,122,121,122,123,124,125,123,121,123,124,123,123,124,124,123,123,122,122,121,120,117,116,119,123,124,124,123,123,123,124,123,123,123,123,123,121,120,120,121,123,123,123,122,121,120,122,122,122,123,124,123,122,121,121,120,121,120,120,124,125,126,124,123,123,123,124,124,123,122,120,117,115,116,121,123,122,123,126,127,127,126,126,124,122,121,119,118,117,118,121,123,124,123,123,122,121,121,122,122,122,121,121,123,123,122,122,123,124,124,122,121,122,122,122,122,121,122,121,120,120,124,125,127,126,125,123,121,120,118,119,122,121,123,126,126,124,123,123,122,122,121,121,121,122,123,122,120,121,121,122,122,120,120,120,121,122,124,124,123,123,123,123,121,121,119,120,123,124,124,121,121,121,121,122,125,126,125,125,123,122,122,121,122,121
121,122,122,121,122,123,124,122,122,125,125,123,121,121,120,118,117,118,122,124,123,121,122,122,125,126,124,123,123,121,121,122,122,122,121,122,122,122,122,122,123,122,123,123,121,122,125,126,125,122,119,120,121,123,125,124,123,122,122,122,123,123,124,123,123,124,123,122,122,122,122,122,122,122,121,121,121,121,121,122,121,123,124,123,123,122,122,121,121,120,119,120,121,121,121,120,121,122,123,122,122,122,122,123,124,123,124,122,121,120,117,118,121,119,121,125,125,125,125,126,126,125,125,127,125,125,125,122,122,122,125,124,120,117,115,118,121,121,122,121,121,122,123,123,124,124,124,125,124,124,122,121,121,120,120,120,123,122,125,126,125,125,124,126,124,119,118,120,119,121,122,122,121,118,119,121,122,121,121,121,124,127,126,122,120,120,123,124,124,125,124,123,122,122,123,122,124,126,125,124
126,126,126,125,121,118,115,118,119,120,119,120,121,121,122,123,125,124,124,126,126,125,126,125,121,117,116,114,117,119,119,118,117,118,120,122,123,127,129,130,131,129,126,121,116,113,117,120,121,121,123,126,128,125,126,127,125,122,121,119,120,123,122,117,117,119,118,121,123,124,125,124,124,125,125,125,127,125,125,124,122,123,121,119,118,119,121,124,125,123,119,116,118,117,114,115,118,122,124,125,130,131,130,128,127,126,121,115,113,113,114,119,123,127,128,127,126,126,126,129,125,121,123,126,126,124,121,120,120,121,121,121,121,121,121,121,124,125,126,126,123,124,123,121,121,119,118,118,118,119,118,115,114,113,112,114,115,120,121,122,124,124,121,121,115,111,117,121,127,136,135,130,126,125,124,123,123,124,126,127,127,122,119,117,114,117,120,122,126,130,131,132,132,130,127,128,121,118,115,111
114,115,117,115,114,117,122,125,129,129,131,131,128,124,121,120,119,116,115,118,122,120,118,119,121,123,122,124,126,126,125,122,123,122,121,122,121,120,124,129,132,131,131,130,124,124,122,109,102,102,109,115,121,122,118,119,119,118,120,118,120,124,127,132,131,135,136,136,133,131,129,129,127,124,123,121,120,117,119,119,118,118,119,117,113,113,115,115,116,118,120,123,134,139,138,133,131,126,121,121,124,125,123,119,118,124,129,131,126,120,110,107,109,113,112,111,113,116,119,122,125,126,129,129,127,127,127,130,131,131,130,123,119,118,117,112,109,113,118,118,121,123,122,120,118,117,117,119,122,116,116,120,126,126,125,128,127,128,132,134,134,134,130,125,121,119,114,112,113,120,123,124,125,119,119,121,122,123,124,118,119,118,118,124,126,131,134,132,137,137,136,131,129,126,120,119,115,112,115,116
118,113,108,108,113,117,119,116,116,111,110,109,114,118,121,123,126,128,126,125,127,134,134,136,141,137,134,131,120,112,109,109,109,111,109,110,109,109,107,116,125,132,137,139,144,144,141,139,139,138,138,137,133,129,123,124,122,115,108,106,108,105,103,106,111,116,118,121,123,126,127,131,128,125,128,129,127,127,121,118,114,110,115,111,107,105,108,116,123,129,126,127,138,137,132,131,128,121,115,121,126,133,127,116,110,104,100,103,102,106,114,118,124,134,145,141,141,142,143,141,127,128,135,142,145,137,131,123,115,99,96,96,102,104,108,110,102,104,100,97,100,110,121,127,136,140,139,141,144,144,138,140,140,132,131,129,121,119,115,115,117,124,128,127,122,120,119,119,123,125,128,124,125,124,122,120,119,121,121,126,131,131,130,124,111,92,90,103,117,129,131,137,120,95,87,101,107,115,127,136
144,149,153,145,132,132,128,113,128,141,145,130,114,102,97,103,103,104,107,107,100,95,100,100,102,107,114,129,140,143,150,159,165,166,161,151,137,115,106,104,113,113,114,115,112,108,114,123,128,141,143,143,144,145,140,133,130,127,120,115,114,105,101,113,121,116,116,113,108,101,96,116,114,120,126,127,109,92,92,92,103,112,129,134,137,146,146,148,161,168,159,138,130,111,99,94,98,110,113,112,106,103,104,108,119,117,123,135,132,139,139,142,145,140,143,142,130,122,116,111,109,119,117,108,119,124,121,116,114,112,115,128,134,140,139,140,140,156,145,132,130,125,115,98,91,84,87,91,102,110,109,107,111,113,118,121,122,117,122,125,130,138,148,145,142,144,126,118,122,133,146,150,160,173,169,137,115,100,89,84,77,91,87,82,76,93,108,117,118,116,118,115,117,121,125,132,140,151,171,172
170,170,151,138,114,119,121,123,134,123,109,95,88,93,108,115,125,130,130,125,131,129,118,114,106,99,109,115,118,122,114,103,100,113,123,141,143,142,146,146,147,148,137,126,105,97,94,99,112,118,116,113,117,125,126,133,136,134,125,116,114,111,119,122,128,135,138,152,159,149,128,130,117,98,86,82,92,116,112,122,124,110,108,102,89,96,107,113,112,111,111,117,130,137,139,150,150,146,158,159,153,140,137,134,125,131,131,140,136,141,139,137,133,121,120,104,99,98,109,119,112,110,112,110,100,109,125,121,119,119,114,110,112,121,121,116,116,129,145,137,125,132,119,91,89,90,92,92,104,125,129,136,136,129,131,130,129,134,137,135,130,133,133,131,129,131,133,126,119,116,119,121,121,118,120,122,131,136,133,119,122,121,100,103,114,119,122,121,123,123,126,133,141,143,144,142,134,134,131,120
94,100,104,93,90,97,114,128,144,157,159,151,128,129,135,124,118,120,121,112,104,96,101,103,104,105,105,113,113,112,117,117,121,126,127,127,127,124,120,124,131,135,141,145,146,146,142,136,122,113,111,115,114,120,135,132,127,123,113,99,92,90,94,96,101,110,124,130,128,123,117,118,123,128,133,141,143,146,151,154,157,157,159,166,165,162,145,125,102,76,69,75,75,81,89,96,99,102,117,120,122,123,128,133,133,138,135,132,137,138,141,131,128,124,129,124,112,141,133,123,115,93,68,68,75,89,100,110,119,134,141,146,143,148,150,148,150,156,156,155,147,126,120,123,126,126,129,124,122,129,103,91,82,87,80,82,97,106,114,116,117,124,129,139,150,155,156,151,143,144,123,112,112,113,101,100,111,115,112,108,100,99,98,98,89,92,111,132,140,147,159,164,160,152,157,162,158,161,150,136
129,131,131,132,135,124,113,90,79,64,82,82,96,103,106,111,116,115,117,127,121,108,112,117,114,122,113,115,117,126,125,118,126,142,147,142,148,141,133,134,137,119,117,127,123,119,124,128,128,123,135,139,146,157,164,136,120,115,108,97,100,109,105,104,101,97,99,106,119,126,126,125,119,100,108,120,129,134,132,125,133,151,143,137,133,116,81,59,87,106,103,113,121,124,132,141,145,146,145,140,126,116,110,111,111,114,110,114,120,133,136,141,151,151,155,157,159,149,135,132,131,128,120,112,94,94,96,117,124,122,113,107,108,112,111,112,103,104,107,113,114,114,116,123,127,127,130,124,116,112,108,101,101,104,109,108,116,132,141,142,149,148,150,153,153,148,142,139,138,137,140,138,129,121,108,113,114,111,110,106,99,97,103,107,107,110,117,130,137,141,142,139,131,121,114,110,103,104,102,107
113,116,118,124,130,131,129,125,123,119,115,122,126,128,128,120,119,115,116,121,124,123,124,123,123,123,128,130,132,134,133,131,130,129,121,120,117,116,118,123,121,122,125,130,140,142,137,126,130,130,125,128,131,132,128,119,116,118,116,113,112,108,100,99,101,114,122,124,116,109,102,95,99,105,111,108,105,108,116,129,143,146,143,143,143,144,145,143,138,119,111,106,101,107,115,126,137,146,147,143,135,132,131,121,120,119,118,112,111,116,120,119,120,127,130,126,125,124,122,124,121,118,120,121,122,118,121,128,132,129,128,121,110,111,113,113,113,111,113,114,113,105,103,101,99,102,112,118,124,137,149,154,152,151,146,136,131,122,114,113,113,117,122,126,127,126,124,122,121,121,127,126,129,131,125,117,111,111,109,110,112,114,112,112,120,124,128,134,136,131,128,127,124,123,127,126,123,120,124,129
123,121,121,125,128,130,129,120,112,101,100,96,94,98,102,107,115,119,128,136,143,151,153,149,158,152,142,136,130,128,127,125,122,116,114,111,112,117,120,116,116,111,109,109,109,114,116,114,110,110,116,117,117,124,126,127,125,128,131,134,132,126,129,129,129,127,125,120,115,109,103,103,108,113,119,126,129,128,126,128,131,135,131,130,127,125,123,123,126,125,113,107,100,105,107,111,122,127,133,143,143,140,132,134,133,132,130,124,120,119,119,119,120,121,121,121,122,125,119,114,116,116,116,115,115,115,111,114,116,112,111,116,117,122,128,131,129,135,146,142,138,136,133,131,123,121,124,123,124,120,115,114,117,114,105,105,107,107,111,113,115,115,123,126,130,135,140,138,138,137,127,119,115,115,112,113,118,124,127,132,135,135,135,133,135,129,114,104,94,92,98,107,116,118,118,119,125,124,123,125
127,123,122,126,134,137,140,141,145,148,149,141,132,121,112,109,103,105,109,107,105,103,106,110,115,121,126,127,125,125,122,119,125,127,126,125,126,124,125,124,122,115,114,111,112,117,122,123,127,131,133,134,134,131,132,133,134,129,127,121,117,114,115,117,117,114,115,119,120,121,116,115,119,120,125,132,134,132,128,124,117,113,108,107,110,116,121,124,125,124,123,131,132,132,136,137,136,133,131,127,124,120,117,115,111,112,118,121,120,119,118,119,123,123,119,117,120,120,124,125,121,117,116,115,118,119,120,121,119,122,123,123,124,125,124,123,125,126,130,131,126,118,119,123,125,121,119,118,114,119,126,127,127,126,126,123,120,116,119,122,125,127,124,121,117,115,120,125,127,128,125,123,119,119,122,123,122,123,122,122,121,122,120,119,121,121,120,119,123,125,125,123,124,123,125,126,124,121,124,123
121,122,125,125,123,114,115,118,119,119,120,121,122,122,122,120,119,123,125,125,122,121,122,124,123,121,123,122,121,124,121,122,125,127,123,120,120,120,121,122,123,124,123,123,118,117,120,124,124,124,124,125,127,124,125,126,125,124,122,120,119,118,122,126,127,127,125,120,117,122,125,121,121,123,122,122,122,121,121,120,123,124,124,123,121,119,117,119,121,124,123,122,119,121,120,119,121,122,123,123,124,124,123,123,123,123,124,123,124,123,123,123,123,123,123,123,123,123,123,123,122,122,121,121,121,121,122,121,120,122,125,127,126,123,121,119,114,110,112,116,123,125,126,126,127,127,122,121,121,122,121,122,121,122,122,122,122,122,122,122,122,122,123,122,122,122,122,122,122,122,122,122,122,123,123,123,122,122,122,123,123,122,123,122,122,123,122,122,123,123,123,122,122,123,122,122,122,122,123,121
122,122,122,122,122,122,122,122,122,122,122,122,123,122,122,122,122,123,123,122,123,122,122,123,123,123,123,122,122,121,121,120,120,122,123,123,123,122,121,121,121,121,121,122,122,121,122,122,122,121,120,119,119,123,125,125,124,121,120,120,121,123,123,122,123,123,124,124,123,123,123,123,122,123,123,123,123,123,123,123,123,123,123,122,122,122,122,122,122,122,122,122,123,123,122,123,123,122,122,122,121,121,122,122,122,122,122,122,122,122,122,122,122,122,122,122,122,122,122,122,121,122,122,122,122,122,122,121,122,122,122,122,122,122,123,122,122,122,123,123,123,122,123,122,122,122,122,122,122,122,122,122,123,122,122,123,122,122,122,122,122,122,122,122,122,123,122,122,121,121,120,120,121,122,122,123,123,122,122,122,122,122,123,122,122,122,121,121,122,122,121,122,122,122,124,123,122,122,122,122
122,123,123,124,124,124,124,123,122,122,121,122,122,121,121,122,122,122,122,122,122,121,121,121,121,122,122,122,122,122,122,122,122,122,123,123,122,121,121,122,122,121,121,121,122,123,125,125,125,123,123,123,123,123,122,123,123,122,122,121,121,121,121,121,122,122,122,122,123,122,120,121,120,119,121,123,125,127,128,126,124,124,123,122,121,121,121,120,120,121,122,120,116,117,123,127,127,124,122,122,123,120,118,117,120,122,124,125,127,126,124,124,123,122,122,121,121,121,121,121,123,123,121,122,123,123,122,123,122,122,122,121,121,122,122,122,121,119,120,121,119,119,119,122,125,126,125,124,123,123,122,122,122,122,122,122,122,123,124,124,124,124,122,122,123,123,119,117,114,120,123,123,122,121,121,122,121,121,122,123,122,123,122,122,123,123,124,123,124,124,123,123,121,119,119,119,121,123,124,124
124,123,123,123,123,121,122,122,121,121,122,123,124,124,125,125,120,118,121,122,121,118,118,123,125,124,123,122,122,122,121,122,123,122,121,120,121,121,122,123,123,123,125,127,125,122,119,118,121,122,122,123,123,124,123,123,123,123,123,124,122,122,122,122,122,121,121,122,122,121,119,119,122,123,122,119,118,121,122,126,126,123,124,124,122,123,122,121,121,119,119,120,125,125,125,125,123,124,123,123,122,122,122,122,121,121,121,121,121,120,120,120,120,123,124,125,126,124,124,124,123,123,122,121,121,123,124,123,123,123,121,120,121,121,122,124,123,121,122,124,124,123,123,122,122,121,121,122,122,122,120,120,122,123,123,122,123,123,122,123,125,126,125,123,123,122,119,119,120,119,119,121,122,122,123,125,127,127,128,128,126,124,122,120,118,118,116,119,123,124,125,127,127,126,125,123,121,123,123,116
116,120,123,121,118,117,116,116,118,118,122,125,124,124,122,120,120,121,121,122,123,124,124,124,123,121,120,120,122,123,123,126,128,133,134,134,135,133,132,129,125,123,123,123,123,123,123,122,122,120,121,117,111,107,105,108,109,108,108,110,117,119,120,127,130,134,135,133,131,130,129,127,121,118,113,111,113,115,114,116,119,121,121,121,123,122,123,121,122,123,125,125,125,125,127,128,129,127,126,126,126,125,118,115,113,119,119,120,121,121,124,130,135,136,132,128,126,128,128,128,125,123,120,114,112,109,108,109,111,114,115,117,121,120,118,119,120,120,120,120,122,125,126,128,131,129,128,127,126,127,131,130,129,134,130,127,126,125,118,106,99,98,102,111,122,123,123,121,121,121,122,123,123,125,123,123,122,121,123,123,119,118,121,122,126,129,127,127,126,124,123,123,122,125,127,134,132,128,130,130
128,128,128,127,124,122,124,124,123,121,116,110,108,107,105,107,113,118,122,122,123,124,122,126,127,130,128,128,127,127,127,124,119,117,118,122,122,122,119,118,121,121,119,121,125,124,116,115,117,117,116,115,117,121,125,131,131,135,138,137,134,129,125,127,124,120,122,112,105,107,119,124,125,120,123,126,131,129,127,132,131,128,124,125,125,125,125,123,123,124,124,123,118,111,106,109,106,104,105,109,116,113,116,120,122,120,122,123,123,123,120,120,122,126,132,138,138,131,126,131,136,138,141,136,125,123,119,114,114,117,116,119,121,126,126,129,126,114,109,107,105,108,112,111,112,112,118,122,132,138,143,142,146,148,148,152,149,141,125,111,100,96,100,106,107,106,105,101,100,106,110,114,118,122,126,128,132,129,123,122,122,125,129,133,132,127,123,118,116,113,114,119,129,139,139,141,142,139,134,122
125,129,125,125,117,113,109,105,106,110,112,118,122,124,127,133,134,131,130,125,128,125,122,116,114,115,117,118,128,139,139,137,132,131,124,104,100,103,103,99,98,106,108,117,126,124,123,129,135,138,140,138,133,121,114,109,108,109,110,122,132,137,136,139,136,123,125,131,128,117,119,112,117,119,122,117,116,122,131,135,133,126,122,108,106,107,110,107,103,105,116,119,115,126,135,137,134,129,132,131,133,134,132,133,131,131,130,128,125,126,127,124,122,121,122,121,115,111,115,106,107,107,110,110,110,108,109,118,123,127,131,130,128,126,132,136,139,132,124,127,143,142,129,125,122,116,107,112,117,123,124,121,113,113,118,123,121,119,132,141,133,123,121,93,72,76,102,120,125,122,121,120,116,125,138,137,132,129,133,131,142,141,136,133,129,118,109,116,124,124,126,126,126,119,117,120,121,122,125,129
132,135,137,138,145,137,129,130,127,111,102,105,109,118,119,126,122,126,130,105,89,88,95,96,102,111,111,118,126,136,144,142,141,136,136,140,117,98,102,121,128,135,138,131,126,113,104,101,108,115,119,123,126,126,134,133,128,127,128,127,137,140,141,142,145,141,127,111,106,104,104,102,106,104,99,98,107,114,126,135,142,152,150,147,151,156,143,127,121,107,115,140,141,127,116,101,73,72,90,117,115,105,113,114,112,116,112,113,130,137,135,136,138,140,140,138,130,121,113,116,112,102,92,94,103,118,136,146,148,151,153,153,152,145,132,128,122,119,121,120,123,128,132,129,112,93,81,85,105,115,117,117,109,105,102,106,116,122,125,129,133,143,154,147,151,154,140,125,107,100,95,95,100,95,101,107,108,127,141,144,145,141,138,135,138,140,131,120,116,122,125,132,151,150,137,108,102,109,88,73
90,123,126,125,123,125,125,129,112,119,118,113,117,119,124,123,129,132,129,123,121,120,116,123,147,150,150,148,119,94,85,109,117,115,120,121,120,119,115,110,118,117,117,120,118,125,133,137,137,136,134,127,123,116,112,119,122,116,118,121,120,113,115,130,128,127,132,140,145,142,143,144,138,127,121,116,107,109,117,111,109,111,109,109,117,121,122,118,105,107,102,90,104,106,121,127,131,142,138,133,126,122,128,129,127,120,107,109,113,121,122,123,133,141,143,139,130,127,115,119,127,135,137,133,130,132,138,137,137,138,135,125,118,117,115,115,116,112,110,106,102,97,100,108,112,113,114,120,118,124,128,130,129,128,126,133,139,136,128,131,123,120,120,126,117,105,94,103,109,114,122,127,125,127,129,127,119,119,124,128,125,114,105,103,104,119,135,142,138,131,113,104,111,120,121,123,127,138,141,144
149,141,142,143,144,137,123,115,116,108,90,94,109,115,116,121,125,129,128,127,126,124,121,119,124,129,135,139,134,125,114,111,117,114,114,109,109,110,112,114,118,121,124,129,124,119,127,139,140,143,132,120,107,107,112,113,108,109,111,115,111,103,103,103,111,130,129,125,125,120,119,135,148,160,160,157,155,152,147,159,161,163,151,114,90,72,56,66,73,68,67,70,85,96,113,128,140,136,139,145,146,146,148,148,150,154,149,141,141,137,130,126,122,129,136,135,120,119,112,93,94,103,111,114,115,115,115,113,102,108,108,112,117,126,134,131,124,122,123,129,118,122,141,136,125,123,133,137,133,125,124,122,109,98,101,99,105,121,144,148,145,142,136,119,104,113,118,119,125,129,119,122,123,127,124,119,129,133,139,137,125,107,108,116,115,114,118,113,102,86,86,109,107,110,118,124,132,138,140,152
153,152,155,161,149,150,147,153,138,118,116,107,80,93,99,102,101,95,99,107,114,114,116,119,119,121,121,123,110,100,105,131,148,148,145,144,121,112,113,114,116,119,121,121,122,128,120,119,115,117,128,140,141,146,153,138,126,133,131,124,120,129,125,126,125,120,118,121,123,131,135,140,131,121,102,88,91,102,100,90,92,106,110,115,121,121,107,102,111,117,119,132,153,161,166,170,162,143,123,112,105,123,138,150,141,118,89,81,87,104,108,112,118,122,130,127,127,121,117,117,105,106,116,122,123,131,133,130,130,132,137,136,137,141,138,131,125,125,101,100,118,126,120,119,128,133,128,121,124,118,111,114,116,111,112,123,145,141,142,128,119,111,92,88,103,122,129,138,132,129,128,130,121,112,117,114,103,104,107,108,118,130,141,135,132,132,119,120,124,133,136,130,124,118,118,113,112,117,118,118
120,123,125,132,136,136,129,119,122,129,125,122,116,107,103,108,127,133,139,140,131,125,133,132,123,128,134,128,126,120,114,107,97,98,116,124,122,122,122,124,115,113,106,105,100,98,112,124,124,128,129,126,126,134,135,135,134,136,129,128,123,116,115,121,127,134,140,134,132,132,123,117,120,121,126,126,128,125,120,108,103,100,92,95,97,103,110,119,126,128,139,146,154,160,152,149,152,153,144,138,126,110,101,102,102,103,97,97,96,98,101,98,103,106,106,109,114,124,140,149,154,146,141,134,132,133,133,122,119,122,126,121,121,123,124,122,131,133,135,127,112,95,87,88,91,98,106,117,134,143,152,155,153,148,141,134,126,119,118,119,119,123,124,122,122,122,121,120,120,119,115,104,106,110,121,123,116,115,114,111,114,117,111,109,107,113,118,125,133,137,138,141,138,139,142,142,137,132,128,127
130,134,130,126,125,126,118,103,97,102,106,101,101,103,109,112,121,121,122,121,123,128,129,123,129,132,135,137,133,122,118,119,123,125,130,131,132,127,124,116,116,119,111,108,103,106,112,116,120,119,122,128,128,129,130,134,138,137,136,144,140,134,127,123,117,111,112,115,116,114,114,115,114,116,112,114,120,124,119,114,113,114,122,131,136,142,141,135,128,128,125,119,113,108,107,114,119,120,112,107,105,107,113,117,121,124,128,131,128,125,129,133,137,136,134,129,130,132,130,127,123,122,117,117,118,115,113,119,121,123,121,119,125,129,129,129,132,123,118,121,121,124,124,114,111,110,115,116,115,114,119,122,126,127,128,124,124,127,127,125,122,120,115,117,117,117,116,112,110,113,115,117,121,125,131,131,133,135,136,136,128,120,118,120,120,120,117,110,111,116,119,119,125,130,136,137,133,133,136,140
130,126,124,125,124,124,122,119,120,122,120,112,106,107,112,112,113,118,122,122,121,126,125,124,123,124,119,116,123,124,125,124,122,121,124,125,123,124,121,121,121,122,130,131,134,134,130,123,117,111,111,118,124,125,124,122,120,118,119,120,123,122,118,114,115,119,124,128,128,127,129,129,123,117,115,115,117,119,122,122,123,123,122,122,123,123,122,123,123,122,121,120,120,123,125,125,122,122,122,120,118,120,121,123,122,121,121,122,124,124,123,122,124,126,126,125,122,116,112,114,118,122,123,124,122,121,119,119,119,118,120,123,122,123,123,125,128,129,127,127,125,123,121,123,124,122,121,122,123,124,125,124,123,123,122,120,123,124,122,122,124,125,124,122,123,123,123,120,119,116,116,118,118,122,123,125,128,131,130,127,121,122,123,119,114,115,119,121,122,124,125,126,124,123,123,124,123,122,123,122
123,122,123,123,122,122,122,122,121,121,122,122,123,122,121,123,122,122,122,122,122,122,122,121,121,121,121,120,121,121,121,121,121,121,121,121,122,122,122,122,122,121,122,122,122,122,122,122,123,123,122,123,123,123,123,123,123,123,122,123,123,121,123,124,124,123,123,123,123,124,123,121,121,122,122,120,121,124,123,122,122,122,122,121,120,122,122,122,121,117,117,124,125,125,125,124,122,122,123,122,123,122,122,121,121,121,122,122,122,122,123,122,122,122,122,123,122,122,122,122,122,122,122,122,122,122,121,122,122,122,122,122,122,122,122,122,122,122,122,122,121,122,122,121,122,122,121,121,122,122,122,122,122,122,122,122,121,122,122,122,122,122,122,122,122,122,122,122,122,123,122,123,123,123,123,122,122,122,122,122,123,122,123,122,122,120,121,121,121,122,123,123,124,123,124,125,124,124,124,122
122,123,124,124,123,123,122,122,123,122,122,122,121,121,122,122,122,122,122,123,123,123,122,122,121,121,123,123,122,122,122,122,122,122,122,122,122,122,122,122,122,122,122,122,122,122,122,121,122,122,122,122,122,122,122,122,122,122,122,122,122,122,123,122,122,122,122,122,122,122,122,122,122,122,122,122,123,122,122,122,122,122,122,122,123,122,122,122,122,122,123,122,122,122,122,122,122,123,122,122,122,122,121,121,122,121,121,121,122,121,122,122,122,122,122,123,122,123,123,122,122,122,122,122,122,122,122,122,122,122,122,122,122,122,122,122,122,122,122,122,123,122,122,122,122,122,122,122,122,123,123,122,122,122,121,122,122,122,122,123,123,122,122,122,122,122,122,122,122,122,122,122,122,122,122,122,123,123,122,122,122,122,122,122,122,123,122,122,122,122,122,122,123,122,122,122,122,123,122,122
122,122,122,123,122,122,122,122,122,122,123,123,123,123,123,122,123,122,122,122,122,122,122,122,122,122,122,122,122,122,122,123,122,122,122,122,121,122,122,122,122,122,122,122,122,123,122,123,122,122,121,121,122,122,121,121,121,122,122,123,123,123,123,124,123,122,122,122,122,122,122,121,120,122,122,122,122,122,122,122,123,123,123,122,122,123,123,123,122,123,123,123,122,121,121,121,122,122,122,122,122,123,123,123,122,123,122,121,120,121,120,123,123,121,123,123,124,124,124,123,122,120,119,120,122,123,122,124,125,124,123,120,121,122,122,123,123,122,122,123,123,124,122,122,122,122,122,122,121,121,120,119,118,120,124,125,125,124,124,123,122,122,121,121,120,122,121,120,119,119,121,124,126,126,125,125,124,124,123,122,121,121,121,123,123,123,124,123,123,122,119,119,121,121,120,120,120,122,122,121
122,122,122,122,122,122,122,122,121,122,123,123,122,122,122,121,121,121,122,123,123,123,122,122,122,123,123,123,122,122,122,119,119,121,124,126,127,125,123,123,124,123,123,123,123,122,123,123,123,123,123,123,122,121,120,123,123,124,124,122,122,122,123,124,121,120,117,117,119,122,125,122,120,121,122,121,120,121,122,122,123,123,122,123,124,123,122,123,123,123,121,122,123,123,124,124,122,122,122,122,122,122,122,123,123,124,123,123,123,123,123,122,122,122,123,122,122,121,120,119,120,122,123,124,125,123,124,123,123,123,123,122,121,120,120,118,116,117,119,124,126,126,124,123,123,122,123,122,119,120,120,119,121,122,125,127,127,126,125,124,124,124,123,122,122,123,122,122,123,122,122,121,121,122,122,121,122,121,122,124,123,123,124,122,122,121,122,124,124,123,122,123,122,119,118,119,120,119,118,117
119,123,126,125,124,123,123,124,124,123,122,123,124,124,124,124,124,123,123,123,123,122,120,122,121,118,119,120,121,122,121,119,121,124,125,124,122,121,122,124,125,123,120,119,121,122,122,122,122,122,121,123,124,121,120,123,125,122,121,121,122,122,119,120,123,121,120,122,122,121,120,123,128,130,132,130,129,128,127,124,123,119,119,121,122,121,120,118,115,114,118,122,121,122,121,121,121,119,117,114,114,118,117,119,120,120,121,122,124,124,124,126,126,126,126,126,125,122,122,123,126,130,133,131,130,122,117,115,111,111,112,117,122,124,123,121,122,121,121,121,122,124,127,124,121,119,119,121,119,123,126,128,131,136,135,129,129,129,124,122,119,118,116,115,114,114,118,121,127,132,131,128,127,126,120,112,109,112,113,116,119,119,120,121,122,123,125,128,129,126,119,111,112,113,114,119,121,124,128,131
132,136,139,138,129,121,121,118,112,109,109,107,109,110,114,123,125,126,125,126,123,117,121,122,123,123,121,114,114,120,124,122,125,123,124,137,142,137,139,148,144,142,139,139,137,135,130,126,122,118,113,110,102,94,91,94,96,101,103,106,116,125,132,138,135,134,130,126,124,124,125,130,135,135,132,127,121,122,121,113,113,113,109,112,117,117,115,116,120,121,121,123,121,118,116,115,119,121,124,128,129,131,127,128,127,127,125,127,131,129,125,129,132,130,124,119,119,118,118,120,119,120,116,119,121,127,130,126,121,121,124,124,123,119,119,118,116,121,121,113,100,100,110,119,127,130,132,134,134,136,137,136,141,135,132,125,114,109,108,105,111,115,118,120,119,116,114,115,124,127,131,131,129,125,123,120,121,123,125,125,131,131,129,122,122,125,127,122,115,113,113,112,115,117,121,121,122,123,124,125
124,119,122,125,125,127,128,127,124,119,114,114,117,124,116,108,111,113,115,119,113,114,123,120,117,122,125,129,139,143,142,141,138,134,128,133,134,123,119,118,115,118,132,143,139,134,120,112,103,95,104,112,116,112,115,124,125,126,127,125,122,119,116,116,118,121,123,125,126,125,126,125,126,124,120,124,126,133,134,136,132,124,117,107,99,102,107,115,116,120,129,144,144,134,123,116,103,91,97,102,111,122,134,133,124,120,123,124,132,137,133,129,132,132,130,132,130,121,119,126,128,122,116,114,114,111,110,112,111,114,121,125,129,123,120,127,134,134,131,131,129,126,127,132,134,134,129,127,123,115,115,118,117,112,124,123,117,120,121,113,103,95,97,120,125,134,138,131,137,147,142,144,139,125,110,94,89,80,82,95,104,105,99,103,115,115,117,116,121,124,130,136,145,146,148,153,162,161,161,160
158,150,146,133,116,106,105,96,92,88,96,103,104,109,121,122,129,130,134,135,141,135,132,146,159,152,133,114,84,48,36,45,63,86,125,164,173,183,176,159,135,120,110,102,105,104,103,109,107,112,120,121,119,118,121,126,125,125,130,136,140,140,145,149,148,135,123,105,93,97,103,116,117,117,117,124,135,140,143,153,157,155,160,157,139,137,126,108,93,86,85,85,92,88,84,68,77,87,91,90,91,107,120,129,138,155,163,173,177,180,172,161,153,150,143,141,124,120,124,127,123,121,115,108,89,68,71,79,89,98,103,112,120,125,131,134,138,137,139,136,135,145,154,152,156,150,148,124,109,111,105,110,120,119,116,101,90,80,84,89,102,111,114,118,124,133,137,139,139,136,138,130,133,139,123,101,96,98,106,113,124,135,138,133,120,122,124,124,125,136,139,139,145,156,179,177,163,136,108,93
88,100,91,75,66,78,91,97,108,128,132,138,150,154,149,153,151,133,116,114,108,95,99,110,112,114,120,126,131,142,139,128,122,120,105,92,111,119,121,118,124,129,136,139,135,134,135,139,134,136,134,130,129,135,150,155,159,157,135,103,70,56,47,58,62,63,77,91,101,115,127,137,150,152,157,157,155,162,158,151,137,137,150,148,150,157,142,121,105,105,82,59,69,93,100,102,107,116,121,125,128,135,153,152,146,146,133,110,122,110,103,112,124,120,122,116,108,101,105,110,122,135,141,138,133,124,115,112,121,120,124,133,136,141,148,145,140,143,160,170,164,142,125,86,57,55,76,77,79,89,109,106,97,117,128,137,144,151,148,141,140,140,135,134,137,146,148,147,140,137,132,114,102,82,70,68,81,96,103,107,111,116,121,135,140,143,139,138,140,142,139,137,134,129,125,127,124,125,125,127
127,118,103,85,92,102,116,126,129,132,133,129,128,120,113,112,122,133,140,136,138,138,142,139,140,149,155,136,106,93,90,67,91,109,117,124,124,124,126,126,129,127,126,120,122,129,133,138,135,108,78,64,80,99,105,105,107,112,123,126,136,144,144,149,150,145,144,138,129,123,121,129,124,122,127,127,126,125,126,123,125,123,126,125,126,118,116,119,122,125,132,137,135,128,117,109,109,109,114,117,119,115,125,131,138,130,121,128,124,125,129,132,135,127,119,121,117,120,117,110,104,103,109,112,110,110,110,106,105,107,106,106,107,110,110,115,124,129,135,142,145,138,147,153,156,154,148,138,134,138,134,127,128,120,98,87,79,74,82,85,87,97,103,116,131,142,157,166,167,157,161,161,160,155,154,155,152,145,125,108,89,80,79,72,78,81,83,95,99,103,112,107,110,121,129,135,144,146,146,140
128,124,129,137,156,164,155,149,135,123,117,112,109,96,68,70,76,85,88,88,104,119,132,156,171,173,167,167,163,156,150,143,135,136,134,133,127,115,96,97,90,66,71,79,89,101,118,126,126,131,123,117,114,104,104,108,117,131,128,121,134,145,152,152,144,121,117,134,127,123,114,112,112,113,121,146,170,179,186,185,182,170,146,118,97,78,71,59,55,78,83,89,93,99,97,93,97,105,112,118,116,108,118,135,148,160,166,167,162,150,149,145,141,143,122,84,53,55,79,87,126,157,180,187,182,167,146,116,110,123,135,124,118,114,122,120,123,110,104,106,87,80,78,92,91,94,89,91,106,128,137,152,157,155,153,155,148,139,130,126,113,111,122,119,121,120,126,138,144,143,148,142,123,126,110,100,96,109,103,87,106,119,137,149,156,158,155,161,155,148,132,92,68,58,57,67,82,98,102,107
123,150,156,150,151,143,108,93,108,111,111,119,127,141,147,144,142,139,129,116,108,116,123,119,126,130,139,148,161,163,151,124,109,120,116,104,91,89,97,96,101,110,115,124,139,139,128,114,108,99,85,75,91,104,104,117,126,154,167,174,175,160,151,124,118,122,124,122,113,110,120,127,129,137,143,138,136,139,135,133,125,117,116,101,85,83,83,82,92,108,143,158,150,142,136,121,95,95,103,94,91,91,95,96,100,123,158,169,170,176,156,123,118,127,136,125,123,115,112,109,113,115,121,132,137,146,156,149,140,137,139,131,119,116,124,125,126,131,121,112,104,87,81,78,72,83,91,98,107,119,132,135,134,129,123,120,121,130,141,150,143,150,147,147,150,134,128,121,108,97,91,96,104,110,112,114,123,133,136,141,149,149,145,146,143,135,123,122,122,116,112,111,125,113,110,103,101,93,88,98
104,122,136,145,143,131,130,121,116,110,110,113,113,125,142,141,133,124,121,95,92,101,111,122,143,158,160,164,145,127,117,120,119,112,120,131,132,125,117,105,83,77,86,116,126,124,123,120,119,123,120,119,135,136,136,136,132,130,132,129,127,121,116,109,122,133,142,149,145,131,132,131,129,122,116,113,111,101,85,86,88,92,108,118,126,136,147,154,153,147,147,146,142,134,119,108,101,84,82,99,117,123,123,127,126,116,99,95,101,122,132,133,125,126,130,135,134,124,119,109,104,106,113,120,131,136,143,154,156,148,146,140,136,123,115,115,114,111,114,120,121,121,129,126,127,136,143,145,131,123,107,78,66,67,67,81,102,119,128,134,138,143,143,150,144,138,124,112,104,108,117,129,126,129,129,129,136,134,135,134,125,119,119,119,120,124,129,126,125,124,125,115,113,106,110,114,111,115,119,133
137,138,132,132,136,126,120,118,117,117,117,122,127,129,138,135,128,129,123,122,120,118,116,112,112,111,107,106,108,108,108,106,112,118,122,124,122,118,123,127,127,128,128,126,129,126,123,119,119,117,118,124,133,131,135,140,146,146,146,142,132,128,117,110,109,111,114,116,122,126,127,125,126,125,127,131,129,122,112,106,100,99,102,107,108,106,108,117,117,116,116,116,125,128,130,132,137,138,137,135,135,127,131,130,126,118,115,124,126,130,130,131,128,120,110,106,110,111,112,120,122,122,123,120,121,123,121,119,117,119,122,123,123,127,135,140,145,143,141,137,134,126,112,103,99,101,108,114,116,112,117,121,121,119,118,121,125,125,130,131,131,129,126,125,123,123,121,118,116,114,120,125,126,125,125,125,123,122,121,120,119,120,123,124,123,123,123,123,122,121,116,116,119,121,122,123,124,122,122,124
121,121,124,126,124,122,116,112,113,120,124,128,126,128,130,130,128,128,128,126,125,120,117,115,113,108,109,122,127,129,127,126,124,121,117,116,115,116,117,118,120,122,122,123,121,122,123,126,129,129,130,129,125,122,121,124,125,126,124,125,126,126,125,121,116,116,118,119,121,121,121,119,121,121,122,120,120,121,121,121,121,121,121,122,122,123,125,124,123,123,123,125,125,125,125,124,123,122,121,120,121,121,120,121,120,121,122,123,123,123,124,123,123,123,123,123,116,109,111,116,120,122,123,125,125,127,126,125,125,123,120,121,123,122,123,124,124,123,123,122,122,122,122,122,121,120,120,124,126,127,126,126,125,126,125,122,112,114,119,122,120,120,118,119,120,122,122,123,123,124,124,124,124,124,125,126,125,124,123,123,123,123,123,123,123,122,121,119,120,123,124,124,123,122,122,121,121,122,121,122
121,122,122,122,121,121,119,120,122,122,123,121,122,121,121,122,122,121,122,122,122,122,122,122,122,122,122,123,123,123,122,122,122,121,121,121,121,122,122,123,122,122,123,123,122,122,122,122,122,122,122,122,122,122,122,122,123,122,122,123,124,123,123,123,123,122,121,120,121,121,121,120,121,123,123,123,122,121,122,122,121,122,123,123,123,123,122,122,122,121,121,121,121,121,122,123,124,123,122,123,123,123,123,122,122,121,121,122,122,122,121,121,121,121,122,122,122,122,121,122,123,122,122,123,123,123,123,123,123,123,123,123,123,123,123,123,123,124,123,123,122,122,122,122,122,122,122,121,122,122,121,121,121,121,122,122,122,121,122,122,122,122,122,122,122,122,122,121,122,121,121,122,122,122,122,123,122,123,122,122,122,122,121,122,122,122,122,122,122,122,122,123,123,124,123,123,122,122,123,122
122,122,122,121,122,121,121,122,123,123,123,123,123,122,122,122,122,122,122,122,122,122,123,123,122,122,123,122,122,122,123,122,122,122,122,122,122,122,122,122,122,122,122,122,123,123,122,122,122,122,122,122,123,123,123,123,123,122,123,122,122,122,122,122,122,123,122,122,122,122,122,122,122,121,121,121,121,122,122,122,122,122,122,123,121,122,122,122,122,123,122,122,122,122,122,123,122,122,122,121,123,123,123,123,122,122,122,122,123,123,123,122,122,122,121,121,121,122,121,121,121,122,122,122,122,122,122,123,123,122,123,123,123,123,123,122,122,123,123,123,123,123,123,123,122,122,122,122,122,121,121,121,122,122,122,123,122,122,122,121,122,122,122,122,122,121,122,122,122,122,122,122,122,123,122,122,122,122,122,123,123,123,123,123,123,121,121,121,121,122,123,123,122,121,121,122,123,123,123,122
122,122,122,121,119,119,121,124,124,124,125,124,123,122,121,122,121,122,122,122,122,122,122,122,122,121,121,122,122,122,122,123,123,122,122,123,124,124,123,122,122,121,118,118,120,123,123,123,122,123,123,125,124,124,123,122,122,121,121,121,121,122,122,122,123,124,124,123,122,121,121,119,122,123,123,124,123,124,124,124,123,123,123,123,124,123,122,121,121,121,119,117,117,120,121,122,122,123,124,123,124,122,122,121,121,121,122,122,123,125,123,123,123,122,123,124,122,121,121,121,121,121,121,121,121,121,123,123,123,124,123,123,122,123,123,123,123,123,124,123,123,122,122,122,121,120,120,122,123,122,122,123,123,122,123,122,120,121,120,120,121,121,123,124,124,124,123,122,122,121,122,122,121,119,120,120,122,124,123,123,122,123,123,123,121,121,120,120,120,121,123,124,125,125,124,122,122,122,122,122
123,122,121,122,122,124,124,123,123,122,122,122,121,121,121,121,122,122,122,123,123,122,122,122,120,121,123,124,122,120,120,121,121,122,123,122,122,122,123,123,123,123,123,122,122,122,122,121,122,122,123,123,122,122,122,121,122,122,125,124,122,123,123,121,123,125,124,123,122,122,122,123,123,122,121,121,122,121,122,122,123,123,122,123,122,122,121,120,119,120,121,121,121,122,124,124,123,121,121,122,123,124,123,123,123,123,121,121,122,121,121,123,123,123,122,123,122,122,124,122,119,120,120,121,122,123,123,123,124,124,124,123,123,122,121,121,121,122,122,122,123,125,124,123,123,125,125,124,122,122,121,121,121,122,123,122,121,122,123,124,125,126,127,126,124,122,119,119,119,112,112,117,121,126,126,125,126,128,128,128,129,129,127,125,123,119,120,119,119,119,120,124,124,123,122,120,118,118,117,118
118,117,116,117,119,124,126,126,121,120,120,122,124,123,122,121,123,125,124,123,124,125,126,129,129,127,125,125,125,125,126,125,122,120,118,120,125,125,124,122,123,121,118,118,116,117,116,119,122,123,128,129,130,128,122,117,107,105,104,109,114,118,123,125,124,125,126,127,131,133,131,128,128,125,120,116,113,114,116,117,117,120,120,120,121,123,123,123,123,121,121,122,127,126,126,126,126,127,127,125,125,123,120,119,119,120,121,123,125,125,126,123,122,118,116,119,121,118,119,123,124,126,126,125,128,129,130,127,124,123,122,121,119,115,113,113,116,119,121,123,124,123,122,126,129,134,131,126,124,119,117,113,106,106,104,110,121,124,127,128,130,129,125,122,113,107,100,101,105,109,116,125,131,140,139,142,145,146,145,140,135,130,124,124,126,124,115,109,109,114,116,116,116,118,120,120,122,126,126,122
121,128,130,123,117,118,106,101,98,106,111,116,128,135,138,141,139,135,138,136,133,135,131,126,114,107,109,112,118,120,116,118,123,124,123,122,122,122,122,123,125,123,120,120,120,128,134,132,128,126,115,101,93,105,113,117,121,123,128,136,133,131,126,120,115,118,124,126,126,125,124,124,123,125,123,118,120,122,123,119,118,121,123,124,128,126,125,127,130,127,126,121,123,134,132,129,117,112,111,109,116,123,126,122,115,112,116,118,129,129,123,120,114,113,119,123,122,122,122,120,119,117,120,128,129,127,131,131,132,131,134,131,131,127,112,107,107,108,114,120,127,128,129,128,131,133,131,126,123,122,123,123,125,121,123,125,128,128,125,125,126,121,123,113,107,102,98,101,106,112,116,119,119,114,118,123,123,127,130,135,135,131,135,138,133,132,130,128,128,124,120,121,122,122,121,123,118,114,116,115
114,118,121,118,127,132,136,139,136,127,112,105,101,105,110,115,120,126,128,118,124,134,139,138,131,116,111,112,118,121,130,131,125,121,119,110,107,115,120,108,105,111,115,127,133,133,132,135,146,148,145,140,129,120,113,116,123,123,121,111,105,101,101,107,118,126,122,123,124,124,129,126,127,130,126,126,129,128,128,133,134,137,134,125,124,121,118,114,117,111,102,102,106,111,123,131,129,125,123,120,116,114,113,113,114,122,135,147,144,129,123,116,104,107,117,115,115,115,111,112,117,122,132,137,137,129,112,102,105,116,118,121,120,117,122,128,128,128,135,134,131,129,128,126,121,117,115,117,121,124,128,131,135,138,133,131,128,127,129,128,133,132,133,147,152,151,143,126,103,80,82,81,81,84,96,106,114,125,142,141,135,123,121,124,119,122,126,128,124,123,125,129,136,136,133,133,121,107,101,118
124,126,125,125,121,117,119,116,114,109,112,106,109,114,117,115,114,126,135,137,140,139,138,136,120,117,112,109,105,107,111,109,122,135,139,138,133,118,120,122,108,106,128,141,150,150,141,125,117,125,127,131,129,123,128,147,153,149,149,141,119,107,107,113,114,111,104,99,99,95,93,96,96,107,99,95,103,109,116,117,122,129,132,127,125,128,130,125,133,141,140,139,137,128,120,123,129,141,156,161,162,144,128,114,103,74,65,74,81,91,105,114,128,137,140,144,153,157,160,157,143,121,93,80,76,86,93,105,116,117,122,133,139,139,144,146,141,133,120,112,133,136,133,152,153,143,139,138,146,139,135,131,117,102,88,82,81,84,95,94,93,92,98,104,111,118,121,120,132,137,142,147,158,158,156,153,136,109,108,130,145,147,142,138,120,97,97,99,113,125,116,104,102,90,97,113,126,138,143,155
154,155,155,128,103,98,78,74,87,82,86,85,78,92,117,131,137,137,132,130,133,139,154,163,164,163,163,156,153,152,153,148,132,120,117,117,116,111,109,110,111,115,120,124,123,122,127,119,121,120,112,102,97,97,93,91,102,111,116,121,127,132,137,144,143,132,113,97,85,76,80,86,96,117,129,131,135,139,143,142,146,151,155,155,154,140,127,112,109,113,113,116,123,126,126,129,135,136,141,144,135,126,109,111,120,140,149,157,147,131,112,94,93,78,70,82,95,107,112,112,116,120,109,101,103,115,111,123,137,140,140,138,129,130,143,167,169,163,142,128,112,96,96,113,121,122,126,120,117,117,132,133,129,122,122,119,118,116,122,120,114,111,109,105,102,104,107,111,117,122,127,141,145,142,128,128,125,114,113,117,127,128,123,127,138,146,145,143,144,138,130,113,103,101,100,109,101,104,110,112
109,114,121,116,119,126,127,118,116,118,128,126,126,122,127,124,117,124,130,131,130,127,122,125,125,127,135,136,129,125,134,133,130,134,137,130,128,130,128,112,95,100,99,92,91,99,108,116,118,124,133,141,153,165,160,151,139,136,120,108,107,111,114,123,132,121,113,109,113,119,113,103,101,94,94,97,103,106,108,107,114,123,127,130,122,119,121,128,129,143,153,167,151,140,143,139,131,118,119,126,133,129,129,131,126,113,112,121,122,124,131,130,122,106,100,99,94,102,106,107,110,111,120,132,142,151,145,137,126,123,143,159,148,140,117,108,97,103,115,122,132,141,119,118,126,126,126,126,115,98,94,104,111,113,117,121,115,100,105,112,113,112,114,111,109,108,138,148,144,145,138,132,133,135,125,124,122,117,116,129,145,155,154,147,121,126,124,96,79,84,109,111,113,130,137,144,156,160,156,156
146,144,141,129,114,99,77,62,46,68,97,120,126,118,103,105,107,113,118,120,129,135,127,138,138,132,127,136,133,129,128,138,149,147,143,148,153,166,163,157,139,89,92,111,104,115,104,72,55,58,67,81,95,108,114,125,142,148,150,156,157,157,154,152,138,119,114,115,105,106,116,143,153,162,174,172,155,119,90,72,67,83,87,90,92,93,97,97,107,120,132,137,143,151,151,147,137,138,138,128,123,133,130,120,111,107,111,113,118,122,132,127,118,121,123,109,105,119,122,110,104,114,122,127,134,147,157,163,183,204,200,164,135,101,63,27,22,54,66,77,97,104,113,118,133,144,158,154,153,128,113,122,115,109,107,110,121,117,125,130,143,156,153,145,133,123,114,104,107,117,115,113,125,146,147,135,147,149,128,109,113,110,101,107,108,109,111,120,135,129,121,115,103,108,121,115,127,121,123,114
125,133,144,160,156,147,134,131,121,113,117,122,124,119,113,108,102,87,74,81,96,111,117,126,130,130,129,125,121,119,111,106,106,115,114,131,144,146,152,157,155,162,152,132,108,109,106,105,122,136,149,154,157,154,137,125,121,114,109,113,118,111,106,115,106,101,106,105,96,73,74,79,90,97,102,109,104,101,113,113,117,136,160,174,176,177,171,161,152,135,132,135,132,124,123,125,130,135,129,113,109,103,90,91,103,105,118,134,153,145,129,115,121,129,131,129,124,98,82,88,100,108,114,110,112,121,131,125,126,126,123,123,116,114,113,115,119,124,127,134,138,153,167,170,150,149,145,133,127,122,118,116,99,96,112,126,131,126,122,102,101,106,111,112,104,101,102,103,106,113,115,117,119,124,117,118,120,118,118,124,130,129,132,135,141,146,152,151,142,134,136,135,138,135,120,116,113,107,101,101
98,108,117,121,120,113,108,116,120,120,123,130,133,136,144,147,145,140,140,142,134,130,117,105,101,99,103,106,110,107,103,97,98,98,103,112,115,124,125,129,131,136,140,142,137,134,142,147,144,131,125,119,115,113,116,127,127,131,135,130,122,116,116,115,118,123,123,110,114,121,141,149,141,118,104,93,81,85,99,107,115,123,120,125,127,128,132,133,141,142,144,152,146,135,122,122,122,121,119,116,114,114,114,108,108,115,127,137,139,122,114,112,115,117,118,119,120,122,123,124,125,116,116,116,122,123,122,136,149,161,151,138,123,99,85,86,100,106,112,114,118,117,123,130,136,135,132,127,116,111,109,111,115,118,125,132,136,133,123,123,121,125,132,128,125,124,128,133,135,138,135,130,117,110,112,119,122,123,117,119,119,116,114,117,119,124,126,126,126,130,129,127,127,124,118,111,102,108,114,115
110,115,120,123,124,126,126,130,127,125,124,119,113,111,116,118,121,127,127,124,121,119,123,128,130,132,134,130,123,117,124,128,129,128,126,130,131,128,119,112,112,113,117,120,125,126,125,122,119,114,113,115,115,123,129,131,130,132,131,129,127,122,111,104,106,107,111,117,119,121,123,125,126,126,125,125,124,124,125,126,125,126,127,129,131,130,128,125,122,119,118,120,125,126,125,121,118,116,114,115,120,121,121,121,122,123,123,123,123,126,127,126,124,122,121,120,117,117,117,117,115,120,121,123,127,127,128,127,125,122,121,123,125,126,127,124,123,121,120,119,120,121,121,120,119,119,119,119,120,123,122,121,121,122,124,123,122,122,123,124,123,125,125,124,124,123,123,122,120,118,119,121,122,122,124,125,124,124,123,123,121,116,116,120,122,124,123,124,120,120,122,122,125,126,128,126,124,123,123,125
125,125,123,123,123,122,122,123,122,122,121,120,119,119,120,121,120,120,121,121,120,120,121,122,125,124,123,122,121,121,124,123,122,120,119,120,121,122,123,124,123,123,123,123,123,121,120,121,121,121,122,122,120,121,123,123,124,125,125,124,122,122,123,120,119,119,123,126,126,123,121,120,122,123,124,124,124,123,123,123,123,123,124,121,120,121,121,118,117,120,122,121,122,126,124,123,124,124,122,122,123,122,122,122,122,123,123,123,122,122,122,122,122,122,122,122,122,122,121,122,122,123,122,123,123,122,122,122,122,122,123,122,122,122,122,122,122,122,123,122,122,123,122,122,122,122,121,121,121,121,121,122,122,122,122,122,122,123,122,122,121,122,122,122,122,123,122,122,122,122,122,122,122,122,122,124,124,123,122,121,122,122,122,122,121,120,121,123,124,124,123,122,123,122,122,121,122,123,122,123
122,121,122,122,123,123,123,123,123,123,122,122,122,122,122,122,122,122,122,121,122,122,121,122,122,122,121,121,122,122,122,122,122,122,121,122,122,123,122,122,123,122,122,122,123,123,123,122,122,123,122,123,123,122,122,122,123,123,123,122,122,122,122,122,123,123,122,123,123,123,122,122,122,122,122,122,122,122,121,121,121,122,122,121,121,122,121,122,122,122,123,122,122,122,122,122,122,121,122,122,122,122,122,122,122,122,123,122,123,123,122,122,122,123,123,122,122,123,122,122,122,122,122,122,122,122,122,122,122,122,123,123,122,122,122,122,123,123,122,123,123,122,122,122,123,122,122,122,122,122,123,122,122,122,122,122,122,122,122,122,122,122,122,122,122,122,122,122,122,122,121,121,123,123,122,122,122,122,123,122,122,122,122,122,122,121,122,122,122,122,122,122,122,122,123,122,122,123,123,123
122,122,122,122,122,122,122,122,122,123,122,122,122,122,122,122,122,122,122,122,122,122,122,122,122,122,122,122,122,122,122,122,122,122,122,122,122,123,122,122,122,122,122,122,122,122,122,122,122,122,121,122,122,122,122,122,122,122,123,122,122,122,122,122,122,122,122,122,123,122,122,122,123,122,122,122,123,122,123,123,122,122,122,122,122,122,122,123,122,122,122,122,121,122,123,122,122,122,122,122,122,122,122,121,122,123,123,122,122,122,122,122,122,122,122,122,121,122,122,122,121,121,122,122,122,123,122,123,122,122,122,122,123,122,122,122,122,122,122,122,122,122,123,122,122,122,123,123,122,122,122,122,123,122,122,122,123,123,122,123,122,121,121,121,121,122,121,122,122,122,121,121,123,124,124,123,123,122,122,122,122,121,122,121,121,121,122,123,123,123,123,123,123,123,122,122,122,122,122,123
123,122,121,121,121,122,123,124,123,123,123,122,120,119,120,121,122,122,122,122,124,123,123,124,123,122,121,119,118,118,122,123,124,125,124,124,124,124,123,121,120,121,121,123,121,121,123,123,123,122,122,123,121,119,120,121,123,124,124,124,122,123,122,121,119,120,121,122,122,123,123,123,123,123,122,121,122,124,123,123,122,122,123,123,123,123,122,123,123,122,123,122,123,123,123,123,121,122,122,121,120,120,122,123,122,122,121,121,120,121,123,124,125,124,124,123,121,119,119,119,120,122,122,122,121,122,123,123,123,123,124,124,123,123,122,121,119,119,120,120,121,121,122,123,125,125,124,124,123,123,122,123,123,123,123,123,122,122,122,122,121,120,122,123,123,122,121,121,120,119,121,123,123,123,123,123,121,119,119,121,121,121,123,124,125,124,123,123,124,123,123,122,123,122,121,121,121,121,122,123
123,123,123,123,123,122,121,122,121,119,121,121,121,121,122,122,121,122,123,124,123,123,123,124,124,123,122,121,123,122,122,121,122,122,124,124,124,122,123,123,124,124,123,121,117,117,119,121,122,125,125,124,122,124,125,125,125,125,122,120,120,120,120,120,121,123,124,124,124,123,124,124,124,125,124,124,124,126,125,123,119,119,121,121,118,119,121,125,125,124,124,123,120,119,117,119,122,121,119,121,123,124,122,121,120,120,121,119,119,116,118,122,128,129,126,120,119,120,121,121,121,120,124,128,127,128,127,123,119,116,119,120,123,125,127,127,126,126,125,121,121,121,122,123,123,124,125,124,120,120,121,123,121,119,119,118,121,120,117,116,117,121,125,124,121,120,118,119,118,120,121,123,127,129,130,127,127,131,131,128,125,124,122,121,121,120,122,124,123,123,121,121,122,116,113,110,111,113,117,118
120,123,121,118,119,121,123,127,127,125,125,124,125,126,121,120,121,125,123,119,124,125,127,128,128,127,125,122,118,117,118,121,118,115,115,119,116,116,117,121,126,132,131,130,132,133,134,127,125,124,122,121,119,115,117,119,116,114,112,111,112,114,118,123,125,126,127,127,128,126,127,129,132,134,129,128,129,127,119,111,103,100,103,115,116,119,123,126,129,125,123,119,122,123,124,122,117,118,122,124,125,128,125,124,127,130,128,127,128,131,125,122,124,123,123,123,120,112,108,102,109,119,125,124,122,120,114,114,117,121,123,125,130,134,138,138,137,136,132,128,119,117,118,111,113,115,113,112,114,122,127,129,128,128,134,140,137,133,139,138,131,125,121,114,103,98,98,107,112,114,109,110,113,117,123,124,121,119,118,120,118,119,123,123,127,129,129,134,135,135,132,132,131,127,121,118,116,109,105,106
114,116,115,118,121,125,125,125,126,125,120,123,132,133,131,131,129,128,122,122,121,124,121,118,124,127,131,133,133,131,129,128,126,128,127,122,116,114,111,109,107,111,115,120,125,129,132,136,134,133,130,125,114,105,100,100,99,105,117,119,123,131,136,130,125,128,123,112,111,119,125,126,123,124,123,122,112,114,122,122,121,127,131,130,124,122,118,109,111,117,130,131,129,129,130,131,131,129,124,119,114,113,115,112,114,117,127,135,131,124,117,113,112,118,134,143,143,133,133,137,136,131,126,120,115,113,116,114,115,117,118,119,122,123,121,126,130,128,119,117,120,116,119,128,126,119,110,107,109,110,113,114,111,105,110,114,123,122,125,126,120,115,117,116,110,120,127,132,136,139,146,154,157,154,151,145,131,121,115,110,110,108,107,111,115,118,126,129,123,112,104,102,98,101,108,119,124,135,136,136
134,136,133,123,118,117,115,123,134,146,156,169,167,155,135,114,81,85,91,103,105,112,120,118,106,101,100,103,106,119,126,128,128,132,133,123,120,119,117,121,126,129,132,129,126,116,108,110,118,115,119,123,127,131,134,141,140,134,125,130,132,129,131,133,129,123,124,118,114,118,122,125,129,123,117,117,122,120,133,126,114,106,99,90,77,89,104,115,132,148,156,166,163,141,119,106,96,89,91,103,108,108,113,131,136,144,160,161,155,140,118,110,103,95,97,111,119,127,124,127,132,134,135,132,129,135,138,135,128,123,114,107,105,115,117,116,117,121,124,126,126,118,109,110,115,120,127,133,143,147,147,146,136,121,102,87,77,68,69,80,109,124,130,132,138,141,147,153,155,151,147,141,151,148,124,111,118,116,117,130,122,109,100,83,76,79,77,90,101,108,120,131,136,149,152,154,156,160,159,155
154,154,151,150,139,116,106,102,103,110,113,114,113,121,123,120,123,106,95,93,104,105,109,115,123,124,123,131,135,133,133,124,118,135,150,145,133,123,83,64,75,91,97,109,107,108,112,111,121,139,149,154,158,156,153,147,144,145,147,161,166,159,139,115,78,64,73,77,79,91,100,112,115,119,122,120,127,149,157,157,149,146,152,146,144,141,147,142,124,113,94,100,103,94,85,68,75,88,104,115,121,124,122,111,103,112,128,138,148,154,158,158,153,151,142,139,129,113,106,91,91,89,98,104,109,120,130,137,139,136,145,146,143,147,150,152,136,130,140,137,99,104,96,73,58,61,82,90,91,116,137,148,147,142,133,123,129,132,142,140,144,143,137,135,130,134,130,127,123,125,127,139,142,127,106,90,86,77,71,89,102,113,123,130,139,142,145,147,140,135,130,121,122,126,126,126,125,130,146,153
163,157,140,95,66,53,45,48,68,87,97,119,135,140,147,160,165,161,156,150,147,141,137,135,130,126,125,130,134,131,138,141,133,125,126,118,78,63,69,81,91,92,107,115,120,119,123,130,137,137,141,154,149,151,151,157,170,157,115,87,66,51,39,52,62,74,89,100,117,142,158,162,170,173,169,163,169,175,179,177,172,156,135,113,85,88,96,97,109,109,112,111,104,100,101,104,110,120,133,138,144,147,132,132,130,108,82,76,89,93,98,98,89,90,94,95,109,122,138,149,159,170,176,175,185,173,141,120,102,88,86,89,116,129,132,135,137,135,119,114,117,113,108,112,119,125,129,125,128,128,123,110,112,109,106,108,120,132,141,148,145,147,133,126,128,138,141,136,142,131,106,98,99,100,104,106,109,107,101,93,102,102,98,90,92,96,121,129,136,140,147,150,154,159,160,158,145,143,138,141
129,125,119,107,109,106,105,98,93,95,116,121,119,124,113,103,92,114,136,148,157,169,176,169,165,163,146,125,98,87,76,65,62,74,94,106,108,130,138,129,117,124,121,117,129,133,130,130,135,136,118,110,125,132,126,126,128,121,122,123,118,115,118,121,122,126,129,134,129,130,132,142,156,155,149,139,128,121,100,83,78,86,116,132,140,127,113,120,111,109,115,111,113,116,117,121,120,117,119,123,118,122,128,129,133,133,136,134,118,109,101,107,124,136,143,141,140,140,139,136,132,123,122,127,120,120,126,125,118,120,100,89,84,83,107,132,138,138,144,119,102,109,115,130,149,155,155,135,92,84,92,100,114,123,125,122,120,120,132,141,148,144,132,110,111,116,128,122,124,129,120,114,113,118,127,123,102,93,93,104,115,133,143,141,131,125,131,140,137,136,125,124,122,125,128,125,124,120,114,119
136,136,137,132,123,111,116,131,133,129,129,125,112,104,98,103,110,92,91,92,79,85,116,140,153,164,162,158,157,158,153,144,120,112,96,82,89,110,112,118,129,114,105,96,97,108,126,132,136,144,144,139,129,139,142,141,145,137,128,108,89,100,109,110,107,100,93,88,104,117,125,153,157,144,122,115,115,118,128,137,134,126,122,121,120,125,130,132,128,128,134,151,142,130,123,94,60,59,90,113,131,141,142,143,141,140,135,132,127,123,123,124,119,116,118,124,121,119,114,109,108,112,121,125,127,127,127,125,133,143,159,179,183,176,144,103,59,63,71,75,94,110,109,108,93,79,89,103,111,107,107,111,122,129,139,140,148,158,169,170,172,176,172,162,142,121,107,108,103,91,104,105,104,112,124,130,124,123,107,84,84,92,107,113,120,139,144,145,144,145,153,168,158,141,127,113,107,115,123,133
122,106,90,91,75,73,85,93,103,108,101,97,98,109,131,149,166,162,154,145,138,142,141,141,142,144,138,132,125,116,112,114,118,115,115,114,113,116,128,139,137,134,128,128,130,123,120,108,108,105,109,116,115,119,125,122,122,122,121,122,122,119,119,111,98,100,112,114,119,119,109,105,112,117,119,128,132,132,133,133,137,131,122,115,113,131,138,148,151,142,135,137,133,128,131,132,143,149,148,129,121,117,108,107,103,98,101,99,87,85,95,102,109,111,110,117,128,133,131,138,149,147,137,127,123,107,104,106,112,124,129,130,122,122,123,122,119,117,114,112,115,120,125,130,140,153,160,150,138,134,127,121,117,114,114,119,117,121,126,112,110,108,117,118,119,122,125,124,123,118,109,109,113,122,131,131,128,124,120,123,127,124,122,124,123,121,111,107,107,118,122,125,133,135,137,140,137,130,124,107
97,106,124,128,125,123,117,106,109,117,128,133,137,135,136,131,110,101,95,93,98,112,120,122,123,125,126,124,131,138,140,142,139,137,151,150,145,137,129,114,100,111,117,121,122,123,126,128,128,133,132,123,115,114,112,103,92,85,81,86,94,106,116,126,136,147,149,151,148,139,131,124,123,121,119,117,113,113,112,116,122,127,126,127,131,136,131,121,115,121,123,127,122,118,118,126,134,136,133,129,123,123,121,113,107,111,113,113,116,123,130,130,132,132,131,124,119,116,119,118,119,117,120,118,125,129,126,126,126,124,120,118,120,116,116,117,116,108,107,110,119,125,124,121,123,122,121,124,126,127,121,120,122,120,125,127,126,129,130,132,142,142,141,136,130,124,115,108,107,109,108,111,113,120,126,125,124,127,129,128,130,129,124,120,113,109,112,112,109,116,127,135,135,129,121,114,111,114,120,122
122,121,130,133,131,128,126,122,123,124,124,125,128,127,120,114,114,117,120,120,122,125,125,115,113,115,112,114,115,118,123,126,126,128,128,124,119,117,121,124,125,124,121,125,133,136,139,137,135,130,124,123,121,118,119,118,112,112,115,120,122,122,119,118,117,117,118,120,120,123,126,126,123,120,116,119,126,125,132,132,121,115,115,116,113,120,128,129,130,127,122,121,123,124,123,121,121,123,121,118,114,113,111,115,123,125,126,127,127,127,127,123,122,123,123,121,114,110,108,115,121,125,130,129,128,125,122,123,122,123,123,123,122,121,121,121,122,122,122,122,124,123,123,123,124,123,124,124,124,125,126,127,126,123,122,120,117,119,119,117,118,122,124,126,125,124,123,123,122,123,123,122,122,123,123,123,123,124,123,121,122,124,124,121,122,126,126,127,126,127,126,123,121,117,118,118,115,116,117,116
119,123,122,123,124,125,125,125,124,123,120,118,118,122,124,125,124,122,122,122,119,122,121,121,123,124,126,125,122,123,122,121,120,120,122,124,124,123,123,123,122,122,122,123,122,122,121,121,122,122,122,121,121,121,122,121,122,121,121,122,122,121,122,122,122,121,121,122,122,122,122,122,122,122,122,122,122,122,122,121,122,122,122,122,122,122,123,123,123,123,123,123,123,123,123,123,123,123,123,123,123,123,123,123,123,123,123,122,122,122,123,122,122,122,122,121,122,122,122,122,122,122,122,122,122,122,122,122,122,122,122,122,123,122,122,122,122,122,122,121,121,122,123,123,123,124,124,125,124,124,122,119,118,119,119,119,121,124,124,122,122,122,123,123,124,123,123,123,121,122,121,122,122,122,122,122,122,121,122,121,121,121,122,121,122,122,122,122,121,121,121,122,121,121,121,121,122,122,122,122
123,122,123,122,122,123,123,123,122,122,123,123,123,122,122,123,122,123,122,123,122,123,122,123,123,122,122,122,122,122,122,122,121,122,123,122,122,122,123,122,123,122,123,123,122,122,123,122,122,122,123,122,122,122,122,122,122,123,123,122,123,123,123,122,122,122,122,122,122,122,123,122,122,121,122,122,122,122,122,123,122,122,122,121,122,122,122,122,122,122,123,122,122,122,122,122,122,122,122,122,122,122,122,123,122,122,122,122,122,123,122,122,122,122,123,123,122,122,122,122,122,122,122,123,122,122,123,122,122,122,122,122,122,122,122,122,122,122,122,122,122,122,122,122,122,122,122,122,121,122,122,122,122,122,122,123,123,122,122,122,122,122,123,122,123,122,122,122,123,122,122,122,122,122,122,123,122,122,122,122,122,122,121,122,122,122,122,122,122,121,122,121,122,122,122,122,122,122,122,122
122,122,122,122,122,123,123,123,122,122,122,122,122,122,122,122,122,122,122,123,122,122,122,122,122,122,122,122,122,122,122,122,122,122,122,122,122,122,122,122,122,122,122,122,121,122,122,122,122,121,122,122,122,123,123,123,123,123,123,122,122,123,122,122,122,122,122,122,122,122,123,123,123,122,122,122,122,122,122,123,123,122,123,123,123,123,122,123,122,122,122,122,122,121,122,122,122,122,122,121,122,122,122,122,122,122,122,122,122,122,122,122,122,122,122,122,122,122,122,123,122,122,123,123,122,123,123,122,122,121,122,122,122,122,121,122,122,122,123,122,122,122,122,122,122,122,123,122,122,122,123,122,122,123,122,122,122,122,122,123,122,122,122,122,122,122,122,122,123,122,122,123,122,122,122,122,122,122,122,121,122,122,121,122,122,122,123,122,122,122,122,122,122,121,122,122,122,121,122,122
122,122,122,122,122,122,122,122,122,122,122,122,122,123,123,122,122,121,122,122,122,122,123,123,122,122,122,122,123,122,121,121,122,122,122,123,123,122,122,122,122,122,122,122,122,122,122,122,121,121,122,122,123,122,122,122,122,122,121,122,122,122,123,122,122,122,123,122,123,123,123,124,122,123,122,122,122,121,121,121,121,121,121,121,121,122,123,124,124,125,124,123,123,123,122,123,123,122,122,121,120,121,120,121,122,123,123,123,124,123,123,123,123,122,122,121,120,121,121,122,123,122,120,121,120,121,124,125,125,123,123,123,122,122,122,121,119,118,121,123,125,125,125,124,122,121,120,119,120,121,122,121,121,123,124,124,123,124,122,122,123,123,121,121,120,119,123,126,126,124,123,123,123,122,120,121,121,123,123,120,119,120,121,123,123,124,123,124,123,122,121,121,122,123,123,121,122,122,122,122
122,122,124,124,123,123,123,122,121,122,122,122,122,122,121,119,120,121,122,123,121,121,121,122,123,123,123,122,122,122,121,118,118,121,123,124,124,121,121,123,124,123,123,123,123,122,122,122,123,121,121,120,122,122,121,122,123,123,121,122,124,125,124,125,123,124,123,123,122,122,121,122,121,121,122,121,120,121,122,123,123,123,121,121,120,121,121,120,121,122,124,124,124,123,121,121,121,121,119,120,122,123,123,121,120,122,125,126,125,124,123,122,119,120,120,122,124,123,123,123,123,123,123,123,123,122,123,123,123,124,124,124,124,123,124,123,123,122,120,119,119,120,120,119,119,121,123,124,125,124,124,123,122,122,121,120,119,120,122,123,124,126,125,124,126,125,123,121,121,121,121,121,120,120,120,120,120,121,122,121,121,122,122,123,121,121,121,122,121,121,122,123,124,122,122,122,121,122,124,125
123,122,123,126,127,124,123,123,121,119,119,121,119,118,121,123,123,123,123,122,122,124,125,125,125,124,122,122,121,123,121,121,121,121,122,123,124,123,124,123,123,122,119,120,121,120,120,120,120,121,124,125,124,123,124,125,126,126,125,123,121,122,122,120,119,117,115,115,113,115,117,124,127,127,126,124,124,125,126,125,126,126,126,127,129,128,127,126,123,120,117,116,117,119,119,118,117,117,117,116,115,117,120,124,127,129,129,130,129,127,128,126,122,118,118,117,118,123,125,124,123,122,119,117,120,121,119,119,119,118,122,127,130,128,127,127,126,125,125,121,116,114,116,119,121,122,123,122,121,120,122,126,127,126,124,126,127,121,114,113,111,116,121,126,128,128,128,127,126,127,127,126,125,120,118,119,121,120,118,118,116,119,126,129,129,129,128,127,124,119,120,117,114,113,116,115,114,117,121,121
121,121,122,126,127,127,125,126,126,127,128,128,127,126,124,121,120,120,119,119,119,117,120,123,124,125,127,126,124,125,123,117,113,116,124,126,128,130,130,122,118,121,117,110,108,116,115,115,117,119,122,120,119,122,121,123,123,124,122,122,122,123,124,124,125,124,125,124,122,126,124,119,119,118,122,128,128,128,131,132,129,128,125,120,121,119,119,115,116,114,120,127,131,130,128,126,116,110,107,111,117,116,119,123,124,122,121,124,130,126,120,118,119,119,120,120,122,122,123,130,138,140,136,129,125,120,118,121,122,119,115,114,116,115,113,114,121,122,126,132,136,132,126,130,135,135,131,123,114,107,105,108,114,112,111,112,115,121,121,124,128,130,130,127,126,129,125,126,124,121,120,125,125,125,123,113,110,114,118,123,127,127,129,134,132,127,124,120,114,115,120,126,129,130,128,124,122,125,120,119
121,117,111,111,115,118,117,116,115,115,112,117,124,130,136,140,134,125,124,131,131,133,128,125,122,107,103,105,111,120,127,122,119,115,116,114,117,127,134,134,134,131,131,132,129,135,139,133,134,128,116,113,107,100,95,100,107,112,118,120,124,129,124,120,129,131,133,135,130,125,121,125,121,121,122,127,132,129,119,107,107,106,105,104,104,108,110,112,116,122,126,130,135,136,141,143,144,144,145,142,137,132,130,127,124,123,122,119,120,112,107,105,108,115,124,125,125,125,124,122,114,111,113,115,115,115,121,135,148,149,139,133,124,102,102,100,95,95,95,101,105,115,120,118,123,123,120,117,128,136,150,164,168,161,143,129,121,95,86,96,108,113,116,116,127,139,141,142,142,129,119,111,113,118,123,127,124,123,126,127,123,117,117,119,118,118,120,120,120,121,122,120,118,119,122,128,130,128,128,129
124,128,137,133,137,142,136,131,116,100,90,100,112,117,119,122,119,120,119,118,117,112,122,124,135,135,117,105,98,89,83,92,107,121,124,130,138,160,174,177,176,162,136,104,91,86,82,91,95,96,102,113,120,127,134,138,144,144,145,139,135,133,131,125,125,125,125,125,123,116,114,112,111,97,92,99,104,112,121,130,143,150,157,159,152,139,140,134,128,127,137,149,135,129,120,86,72,82,116,129,134,117,106,100,91,95,105,118,116,113,107,107,115,120,118,118,114,119,124,126,115,108,117,123,132,129,132,139,140,136,131,127,123,122,135,138,132,127,132,136,119,117,116,121,127,132,138,147,151,147,142,138,126,125,123,117,110,113,119,121,118,108,101,102,104,100,102,110,107,108,107,99,97,100,111,123,156,174,184,166,143,115,87,80,91,94,102,107,114,121,129,133,144,161,160,152,142,134,126,103
104,113,109,95,93,108,119,132,135,129,127,131,124,126,132,128,130,129,122,118,119,127,134,135,123,121,119,116,117,115,111,108,112,128,127,128,130,126,114,116,120,127,132,135,135,130,122,117,119,127,132,120,109,101,100,97,107,114,121,129,134,132,139,143,135,127,131,122,106,105,114,121,141,151,160,168,146,117,79,59,58,53,74,96,114,119,130,144,148,140,143,142,139,125,127,131,128,131,144,155,151,145,128,104,86,103,111,117,125,124,123,116,112,111,110,113,116,125,135,144,151,155,160,153,144,144,145,127,105,102,102,91,71,79,86,85,91,96,99,104,110,115,122,130,137,141,143,142,138,139,150,158,165,164,160,151,122,105,98,98,100,102,105,109,109,105,102,101,102,99,95,97,101,112,119,127,142,161,170,171,157,147,148,158,167,168,156,135,120,110,115,115,112,99,80,71,79,88,99,107
110,116,122,125,132,131,128,125,125,124,127,124,119,119,114,114,112,116,128,135,135,136,134,117,95,110,123,127,134,137,143,139,133,131,121,109,113,134,135,133,136,137,125,122,124,115,119,125,117,120,127,114,86,87,87,81,84,95,115,127,132,129,125,127,131,133,134,135,123,110,104,102,104,110,116,124,131,143,159,166,172,175,168,159,151,142,133,125,118,115,114,115,117,119,122,123,120,121,121,116,109,109,105,96,87,89,90,89,91,96,104,115,124,134,140,141,138,130,127,131,140,143,150,154,149,136,117,113,100,102,99,99,97,97,102,107,109,114,120,125,123,124,136,132,131,132,131,127,133,131,128,128,135,139,130,138,140,142,140,131,121,116,114,116,121,118,117,109,99,96,99,115,126,131,132,137,133,129,130,129,133,132,131,155,169,168,166,148,117,71,49,52,57,77,89,100,102,103,108,117
125,137,137,133,130,124,109,104,120,130,133,132,130,133,145,155,159,151,145,132,125,123,116,107,107,112,123,130,126,119,118,114,112,109,114,124,135,136,138,143,144,141,136,131,136,140,138,125,120,118,95,87,88,81,66,69,95,105,108,110,114,122,130,140,153,171,173,169,154,130,112,82,80,90,104,118,126,136,134,134,123,116,119,115,118,123,124,125,124,137,141,139,123,113,107,97,103,107,114,122,128,128,131,142,152,158,169,175,174,164,147,124,107,106,109,113,106,93,85,85,90,100,108,112,114,125,117,102,96,111,125,122,116,115,109,98,106,133,138,134,122,110,113,131,145,144,133,132,135,135,120,116,108,116,117,117,128,138,141,122,105,111,107,115,135,144,151,148,139,134,133,126,128,141,146,136,104,94,83,78,75,87,118,133,137,136,140,137,140,144,141,129,122,116,117,113,104,102,105,110
116,118,119,121,123,125,136,139,127,122,123,115,106,110,106,97,111,119,126,137,145,148,151,149,147,144,135,133,131,117,100,89,94,104,118,128,129,133,130,125,126,122,117,113,110,110,115,120,128,126,122,107,104,101,104,122,134,133,137,134,118,112,122,140,150,162,160,153,144,113,98,105,129,131,139,145,134,109,76,78,88,93,95,99,113,113,115,120,123,122,120,123,127,131,137,139,131,122,122,121,114,118,122,130,123,117,118,126,126,127,131,132,127,120,112,120,115,116,122,124,131,138,143,140,133,131,139,136,131,128,122,124,127,133,132,125,120,103,92,93,101,109,109,108,111,111,107,109,123,139,143,150,149,132,115,107,105,94,93,107,117,128,136,144,153,147,142,137,127,111,106,116,110,107,109,119,130,127,121,121,120,122,130,132,134,134,132,139,138,125,123,122,126,125,129,123,122,117,115,122
120,122,117,104,89,91,93,97,108,121,130,133,129,122,112,111,126,133,136,131,119,105,100,111,120,124,136,142,148,147,137,133,128,130,130,123,109,96,98,98,116,126,134,148,146,151,161,154,148,147,141,131,121,112,106,96,104,108,113,116,112,104,100,100,101,102,103,106,113,122,121,116,114,118,121,126,131,128,122,121,132,139,130,127,126,127,129,136,134,134,135,139,138,132,121,121,121,115,115,111,116,122,126,118,116,114,117,115,108,103,109,116,140,142,127,104,104,107,114,128,140,148,151,146,142,130,121,124,128,128,130,122,109,98,100,103,104,103,106,111,119,126,134,134,133,124,123,126,124,126,132,143,142,138,133,121,112,111,108,102,113,115,116,124,124,119,123,116,110,107,111,115,110,111,114,118,127,136,138,144,138,131,132,131,129,128,136,136,129,128,123,122,122,116,113,119,129,132,131,127
121,115,119,122,115,113,116,118,115,117,121,122,121,117,116,117,117,115,110,108,112,110,115,119,122,120,122,122,123,122,126,134,127,125,129,130,132,136,134,136,140,139,132,127,128,127,120,113,108,102,106,107,110,113,112,117,124,129,140,145,144,140,135,136,135,130,127,126,123,118,111,115,108,108,108,105,102,100,96,100,106,113,122,129,133,133,136,137,136,126,121,114,107,111,118,127,126,125,129,129,127,123,120,123,126,127,126,126,129,129,120,116,117,121,122,123,127,126,126,134,133,134,126,123,120,116,119,122,119,115,115,115,116,120,120,118,118,129,138,134,131,127,120,112,114,119,117,121,126,129,129,127,122,118,114,112,111,113,113,115,117,121,124,129,125,121,116,117,116,119,128,129,132,133,130,127,127,122,123,127,129,129,128,121,114,115,119,123,127,129,128,120,117,116,116,113,115,116,119,120
126,127,126,123,123,123,120,119,118,116,116,118,122,125,127,129,128,130,130,126,124,127,129,127,119,114,115,117,118,117,112,111,112,112,116,117,121,126,128,130,130,130,131,130,126,125,124,124,125,125,124,123,124,125,125,125,122,121,123,125,123,123,123,124,124,123,122,119,118,120,121,121,123,121,120,121,120,120,119,116,116,120,120,119,120,123,125,121,121,120,121,121,122,123,123,122,123,123,123,123,122,122,123,124,124,123,124,124,122,123,123,126,127,127,125,124,121,119,119,117,116,117,118,120,120,120,122,122,121,122,119,116,120,122,123,124,124,124,121,121,122,123,124,124,123,122,122,121,121,121,122,122,122,120,120,122,123,122,124,125,126,125,123,122,123,123,124,124,124,125,125,125,126,126,125,125,125,124,124,121,114,113,118,118,119,122,127,127,125,124,127,129,127,125,123,122,121,120,122,123
123,122,123,122,121,119,118,117,119,120,121,121,121,121,120,119,121,122,121,120,119,120,123,120,119,122,124,124,122,123,124,124,124,124,123,122,122,122,123,124,122,122,122,122,122,122,123,122,121,120,122,122,121,120,122,122,122,123,123,122,121,122,121,121,122,122,121,122,121,120,121,121,122,122,122,122,122,123,122,122,123,121,120,121,123,125,126,125,122,123,124,123,123,122,122,123,122,121,122,123,121,121,121,122,122,123,122,123,122,121,121,122,125,124,124,123,122,122,121,123,122,122,123,123,122,122,123,122,122,123,123,122,122,122,122,123,123,123,122,122,122,122,123,122,122,122,122,121,122,122,122,122,122,122,122,122,122,122,123,122,122,122,122,122,122,122,122,121,121,121,122,122,122,121,122,122,122,122,122,122,122,122,121,121,122,122,122,122,122,121,122,122,123,123,122,121,122,121,122,122
122,122,120,120,121,122,123,123,124,123,123,122,122,122,123,123,123,122,122,122,122,122,122,122,121,122,122,123,121,121,121,121,121,120,121,122,122,123,123,123,122,122,123,123,122,122,123,123,122,122,123,122,122,122,122,123,122,122,122,122,123,122,122,122,123,123,122,122,122,123,123,123,123,122,122,122,122,122,122,122,122,122,122,122,122,122,122,122,122,122,122,122,123,122,122,123,122,123,122,121,122,122,122,122,122,122,122,122,122,122,122,122,123,122,122,122,123,123,122,123,122,123,122,122,122,122,122,122,123,122,122,122,123,123,123,124,123,123,123,123,123,123,123,122,122,122,122,122,122,122,122,122,122,122,122,122,122,122,122,122,122,122,122,122,122,122,122,122,122,122,122,122,122,122,121,122,122,122,122,121,122,121,121,122,122,122,121,122,122,122,122,122,122,122,122,122,122,121,122,122
122,122,122,122,122,122,122,123,122,122,122,122,123,123,122,122,122,123,122,122,123,122,122,122,122,122,122,122,122,122,123,122,122,122,122,122,123,122,122,123,123,123,122,122,122,122,122,122,122,122,122,122,121,121,122,122,122,122,122,122,122,122,121,122,122,122,122,122,123,123,122,123,122,122,123,122,122,123,122,122,122,122,122,123,123,122,123,122,123,123,122,122,123,122,122,123,122,123,122,122,122,122,122,122,122,122,123,122,122,122,122,122,122,122,122,122,122,122,122,121,122,122,122,122,122,122,122,122,122,122,122,122,122,122,122,122,122,122,122,123,123,122,122,121,122,122,122,122,122,122,122,122,122,122,122,123,123,122,122,122,122,122,122,123,122,122,123,122,122,122,122,122,122,122,121,122,122,122,122,122,122,121,122,122,122,122,122,122,122,122,122,122,122,123,122,122,121,122,123,122
123,122,122,122,123,122,123,122,123,122,122,122,122,122,122,122,121,122,122,122,122,122,122,122,123,122,122,122,122,121,122,122,122,122,122,122,122,122,123,122,123,122,123,122,122,123,122,122,122,122,122,122,122,122,122,122,122,122,123,122,122,122,122,122,122,122,122,122,123,122,122,123,122,122,123,122,123,122,122,122,122,122,122,122,122,122,122,122,122,122,121,122,122,122,121,122,121,121,122,122,122,122,122,122,122,122,123,123,123,123,122,122,123,123,123,122,122,122,123,122,122,122,123,122,122,122,122,122,122,122,123,123,123,122,122,122,122,122,122,122,122,121,121,121,122,122,122,122,122,121,122,121,122,122,122,122,123,122,123,123,122,122,122,122,122,122,122,123,124,124,123,123,123,123,122,122,121,122,121,122,122,123,123,123,122,122,122,123,122,121,122,122,122,122,121,121,122,122,122,123
123,124,123,123,123,122,122,121,121,121,121,122,122,123,123,122,121,121,121,123,121,120,120,120,121,122,124,123,123,123,122,122,121,122,123,124,124,124,123,122,122,123,123,123,121,119,119,121,122,122,124,124,123,122,122,123,123,123,122,121,121,121,121,119,119,120,123,125,126,124,125,123,123,123,123,123,122,123,122,122,122,122,123,123,121,121,121,122,123,123,123,120,120,121,123,124,122,120,122,123,123,123,122,122,122,122,121,122,121,122,122,122,123,122,121,121,121,123,123,123,123,122,123,122,121,122,123,123,122,122,122,123,121,120,119,119,120,123,124,125,125,124,123,123,123,121,121,121,121,121,123,124,124,123,123,122,122,121,122,122,123,123,123,123,122,122,121,120,118,118,120,122,123,125,125,123,123,124,124,123,123,123,123,122,122,121,121,121,122,123,122,122,121,120,118,116,118,123,125,125
123,123,124,123,123,123,123,123,123,124,123,124,123,123,123,123,122,120,119,120,121,121,122,122,123,123,122,122,121,121,122,123,122,123,122,122,121,121,122,123,124,123,123,123,123,121,121,122,122,121,120,121,123,126,126,124,123,119,117,118,119,121,122,122,122,122,121,122,123,124,123,122,121,121,122,123,123,123,123,122,122,122,121,121,121,122,122,123,123,123,124,122,122,121,122,123,123,125,125,125,124,124,123,121,119,121,121,120,121,121,122,123,123,124,124,124,123,124,124,122,123,122,121,120,121,121,121,121,120,120,120,119,121,122,123,122,122,122,121,121,122,122,121,119,121,122,123,126,128,128,128,127,125,122,121,120,121,121,122,123,123,122,121,122,121,120,121,120,120,120,120,121,121,121,122,122,122,124,125,124,121,121,124,125,126,126,126,127,125,123,122,121,116,114,116,121,124,124,123,123
123,123,124,123,124,127,126,125,124,122,120,120,121,122,123,124,127,126,123,121,122,121,122,121,120,117,115,117,121,121,120,119,119,120,124,128,130,130,132,132,129,125,124,120,116,116,114,116,118,121,121,119,115,113,113,115,118,122,123,122,121,118,120,122,123,124,124,125,126,123,123,126,128,132,130,127,127,126,126,127,127,126,125,126,127,128,125,120,111,110,111,111,112,119,121,122,124,126,127,128,128,129,128,126,124,123,123,118,117,116,117,117,116,115,113,110,113,116,114,117,119,120,127,128,128,129,130,130,131,132,131,129,128,127,123,119,118,118,117,118,119,119,116,118,121,124,125,124,126,128,129,127,125,124,124,122,122,122,123,123,121,121,124,127,125,124,121,122,122,118,116,116,116,117,116,116,115,115,114,113,116,117,119,122,121,119,115,120,124,131,136,136,136,138,136,131,118,121,125,127
125,121,118,118,119,120,118,118,121,122,122,122,121,122,122,124,123,117,110,114,124,128,131,127,119,115,112,113,115,112,118,119,123,125,126,125,122,120,121,122,121,122,124,128,133,135,133,128,127,127,127,122,119,120,120,122,122,116,115,115,118,121,123,126,122,115,114,121,132,139,132,126,128,126,121,120,117,110,109,115,124,130,131,129,126,123,121,121,117,120,120,119,122,125,125,120,120,124,123,120,119,123,122,119,115,108,107,110,115,120,124,123,125,128,132,136,140,142,136,130,122,114,116,117,116,120,120,115,121,125,122,120,122,123,123,124,128,124,123,121,123,119,117,120,120,119,116,115,117,120,121,125,128,132,133,134,124,121,125,127,124,118,119,118,111,114,118,120,123,126,129,126,125,125,122,115,111,110,110,112,115,117,124,128,133,140,136,135,128,122,115,115,124,129,130,131,130,126,118,109
102,103,104,107,107,105,113,119,123,131,145,148,145,145,141,134,131,132,131,131,129,135,136,128,111,104,97,100,104,109,114,116,112,113,114,120,122,122,125,129,128,128,130,132,134,133,129,123,121,116,112,108,109,113,122,128,132,133,127,118,117,119,119,121,123,127,131,128,123,120,117,114,110,115,119,118,121,127,127,123,123,121,118,114,112,116,120,120,127,127,132,136,139,139,142,141,137,130,121,118,123,124,127,128,128,118,111,114,110,102,102,106,104,105,121,123,120,121,118,103,112,120,123,128,134,141,143,141,136,136,135,129,119,119,123,122,120,119,117,117,119,124,127,128,126,120,116,124,126,123,123,123,118,120,127,122,117,116,113,117,115,127,130,124,114,106,105,108,107,112,110,114,118,124,130,137,138,135,133,134,127,111,114,116,117,119,121,130,146,158,157,147,141,130,122,117,110,108,99,98
102,104,103,105,108,103,106,118,123,119,120,129,135,137,144,144,139,130,126,126,125,121,120,119,126,127,118,117,116,116,118,119,122,127,131,130,128,130,130,131,132,140,144,130,122,107,89,88,91,109,116,123,127,126,127,127,124,126,130,135,140,128,129,121,106,91,81,95,109,114,127,132,139,147,143,136,138,125,105,102,109,114,115,113,114,118,122,126,132,136,136,133,135,139,135,134,135,124,116,110,117,115,105,115,119,114,119,128,132,128,128,133,127,125,128,127,122,117,139,160,159,152,135,109,78,81,97,108,105,106,105,97,90,95,106,116,123,112,119,123,122,131,146,149,145,157,172,178,159,143,119,91,94,95,107,112,112,133,144,145,141,130,114,100,99,99,105,105,108,120,121,115,113,117,115,117,126,135,140,139,142,151,145,136,124,109,94,92,104,115,125,125,123,129,134,135,138,134,121,112
116,122,127,127,122,118,124,123,129,125,122,113,117,129,131,132,122,112,108,109,116,121,112,111,117,138,144,139,132,116,125,133,128,123,122,89,68,91,110,117,132,140,134,121,105,108,100,94,99,113,129,138,147,151,149,147,140,129,132,135,135,138,135,131,124,116,112,108,108,104,100,107,115,121,135,139,142,149,147,143,133,137,137,130,122,121,122,116,114,117,119,123,123,117,115,112,108,109,125,113,112,99,89,85,103,105,109,115,123,111,110,115,109,118,130,145,152,152,148,128,117,107,109,113,123,119,112,114,115,122,133,145,145,140,134,128,127,129,131,129,128,125,122,129,128,125,114,103,103,114,125,134,135,135,130,131,136,138,139,135,133,131,125,125,129,130,128,123,116,104,86,93,101,107,130,135,127,128,124,92,87,102,117,115,109,95,99,103,114,122,127,129,129,127,133,136,131,132,137,136
135,128,119,114,117,118,123,117,116,114,104,102,117,119,117,125,139,141,142,150,153,160,171,172,169,159,129,104,95,88,73,73,79,89,93,99,120,136,142,138,136,136,130,127,125,125,118,105,101,108,114,120,128,136,131,132,139,136,133,135,138,130,130,126,123,107,88,91,90,92,97,116,128,131,132,137,136,136,115,116,117,111,110,110,118,125,132,136,142,145,146,148,147,145,144,138,135,132,131,126,123,125,115,107,100,94,88,69,90,100,109,117,123,126,125,124,120,129,133,133,131,137,129,122,126,133,135,127,127,134,114,102,82,78,72,98,115,127,136,137,138,138,138,139,140,130,122,121,118,122,127,126,130,141,144,141,134,133,134,135,134,133,125,122,120,116,116,113,109,108,101,105,107,115,119,127,131,131,123,119,109,90,93,101,99,99,106,111,111,111,123,131,139,146,142,146,155,147,146,152
